8.659632358355895576e+01
8.929577067691144521e+01
9.189768613773851769e+01
9.430970050929593640e+01
9.644945638577111424e+01
9.824885272293821004e+01
9.965743112839190587e+01
1.006447061797680647e+02
1.012013110631715591e+02
1.013389045452725981e+02
1.010888661201443739e+02
1.004998792790374580e+02
9.963457499335424927e+01
9.856546247607050759e+01
9.737041523861813630e+01
9.612800288679133587e+01
9.491296407072726993e+01
9.379209579890556370e+01
9.282080463782574498e+01
9.204051279396925622e+01
9.147705286041319539e+01
9.114011423530311617e+01
9.102373527700157751e+01
9.110776708377314037e+01
9.136017062722973492e+01
9.173996152234789747e+01
9.220057812778431128e+01
9.269343067156722782e+01
9.317138436585388206e+01
9.359194534243906105e+01
9.391994683188299575e+01
9.412957442068635316e+01
9.420562427773140257e+01
9.414394261347619874e+01
9.395105601776081983e+01
9.364305675218410840e+01
9.324385693472993353e+01
9.278296654269155397e+01
9.229297530983298259e+01
9.180693367400583327e+01
9.135582559209842657e+01
9.096631154159884147e+01
9.065889374434279091e+01
9.044661780808722540e+01
9.033438207956147892e+01
9.031887933365248955e+01
9.038914745397815409e+01
9.052766289441714775e+01
9.071187423877390188e+01
9.091604607618147327e+01
9.111326362624079422e+01
9.127744440139534277e+01
9.138521020919620241e+01
9.141748729680558938e+01
9.136072852493971652e+01
9.120768410148139083e+01
9.095768196532857530e+01
9.061641983645658627e+01
9.019530336592779918e+01
8.971039974482572177e+01
8.918109949154730032e+01
8.862859843991813591e+01
8.807431874778146152e+01
8.753839056013703157e+01
8.703830191509206315e+01
8.658781108540421201e+01
8.619619013434663657e+01
8.586784075927036497e+01
8.560229662823294916e+01
8.539459272794576350e+01
8.523595947724227528e+01
8.511477476979763424e+01
8.501769169035105733e+01
8.493084986578170970e+01
8.484107607193385547e+01
8.473698420354671157e+01
8.460989654743579536e+01
8.445452456261639895e+01
8.426936773962525251e+01
8.405681392473445612e+01
8.382294406772902562e+01
8.357706791002274826e+01
8.333103608557836139e+01
8.309838810742122917e+01
8.289340493455982539e+01
8.273013972218460310e+01
8.262149591391698777e+01
8.257841814944397640e+01
8.260924790282585661e+01
8.271928132212775608e+01
8.291055054156896631e+01
8.318183077137510395e+01
8.352886063983670795e+01
8.394474626387795979e+01
8.442051012011403088e+01
8.494573386250537794e+01
8.550924417540576883e+01
8.609978676712580636e+01
8.670664177533100769e+01
8.732013852950856858e+01
8.793204032374192991e+01
8.853577826387180494e+01
8.912653073734169595e+01
8.970115413771604551e+01
9.025798364793443795e+01
9.079653085272406088e+01
9.131711149099081126e+01
9.182044134243091094e+01
9.230723707279922507e+01
9.277785762242008616e+01
9.323201480774521599e+01
9.366857414227239076e+01
9.408546063869746945e+01
9.447967124354407531e+01
9.484738984042093080e+01
9.518419069072426453e+01
9.548530808355884858e+01
9.574594773577827311e+01
9.596161288563010316e+01
9.612841509780018612e+01
9.624334678177119429e+01
9.630449103457755200e+01
9.631115616771748478e+01
9.626392482605376699e+01
9.616461657711442967e+01
9.601617060855389241e+01
9.582246001431987281e+01
9.558805520457462990e+01
9.531795800388837847e+01
9.501732875455891758e+01
9.469122836536891441e+01
9.434439559155308075e+01
9.398107518690372331e+01
9.360490963242212104e+01
9.321889894872951743e+01
9.282542829125864614e+01
9.242635631940936491e+01
9.202315254891107088e+01
9.161706852136263990e+01
9.120932369992219435e+01
9.080128600028636754e+01
9.039462783171592264e+01
8.999144160091576339e+01
8.959430099783837420e+01
8.920626013619387606e+01
8.883078776745095695e+01
8.847163979901446851e+01
8.813267874736582996e+01
8.781765448491808002e+01
8.752996299278672154e+01
8.727240415776478244e+01
8.704695884649602533e+01
8.685460490465119676e+01
8.669519074066943176e+01
8.656737954404269431e+01
8.646867164378822679e+01
8.639550710861837501e+01
8.634344460273570121e+01
8.630740555650886847e+01
8.628196672356500585e+01
8.626168064116400558e+01
8.624139974273541043e+01
8.621657815696949001e+01
8.618352740672538914e+01
8.613960295253710342e+01
8.608330498728707880e+01
8.601428137320110068e+01
8.593322875080660594e+01
8.584169618143299374e+01
8.574180325656146806e+01
8.563589187859439278e+01
8.552613781814662275e+01
8.541415212100569931e+01
8.530060642299211793e+01
8.518491522865834042e+01
8.506500624181504122e+01
8.493720432186198366e+01
8.479624825683811196e+01
8.463544985349901140e+01
8.444699478479132893e+01
8.422237267199406574e+01
8.395291331443249305e+01
8.363039726003475494e+01
8.324769980846329531e+01
8.279942127411111130e+01
8.228245662220139423e+01
8.169645492015294508e+01
8.104412722784469736e+01
8.033136788033017694e+01
7.956716524380797750e+01
7.876329318922869049e+01
7.793378708423661294e+01
7.709422784576430843e+01
7.626086947340252209e+01
7.544966104619931002e+01
7.467522522605156610e+01
7.394985996731205091e+01
7.328263597643723415e+01
7.267865885363193001e+01
7.213855552450698383e+01
7.165823586900579301e+01
7.122895994348974114e+01
7.083772468068127637e+01
7.046796083567222979e+01
7.010050709982442640e+01
6.971481003920835917e+01
6.929027566547689787e+01
6.880768680769658374e+01
6.825058963561200187e+01
6.760655106262115055e+01
6.686818973547987355e+01
6.603389745631467633e+01
6.510818274558420171e+01
6.410159440201097425e+01
6.303020707269318734e+01
6.191468333941705993e+01
6.077895591350741000e+01
5.964860264539713341e+01
5.854901388831088838e+01
5.750346745114258340e+01
5.653124286602971438e+01
5.564590467816180563e+01
5.485388278409710239e+01
5.415346073705181595e+01
5.353425810665226692e+01
5.297726393788274635e+01
5.245544056233531194e+01
5.193487811383705832e+01
5.137644355891651315e+01
5.073782768383482988e+01
4.997586587379628753e+01
4.904898515702252126e+01
4.791961726395143728e+01
4.655641849146432065e+01
4.493614619175636449e+01
4.304506720072117787e+01
4.087980460491523615e+01
3.844757285276892844e+01
3.576579878079138552e+01
3.286117509734177133e+01
2.976824106674324710e+01
2.652762742409817776e+01
2.318413610447542794e+01
1.978484593828012095e+01
1.637744159814825906e+01
1.300895365873905796e+01
9.725069298952149666e+00
6.570132391599821986e+00
3.587896111822233447e+00
8.230235389329370044e-01
-1.676736835785061830e+00
-3.857849675285978552e+00
-5.657979778060851395e+00
-7.002937946352336240e+00
-7.803901583159360555e+00
-7.955243739691248983e+00
-7.333305846381786175e+00
-5.796422596560979024e+00
-3.186453217307121388e+00
6.680000197742913537e-01
5.946602099239454375e+00
1.283055362131463539e+01
2.149426749894589861e+01
3.209572932401556500e+01
4.476593282036948551e+01
5.959788746078121591e+01
7.663577641442643085e+01
9.586489518783147901e+01
1.172030222647919970e+02
1.404938512641356283e+02
1.655030581724081173e+02
1.919174776679482193e+02
2.193477326338786213e+02
2.473345009673911079e+02
2.753584201629010977e+02
3.028534380548700824e+02
3.292232220040501716e+02
3.538600564821331886e+02
3.761654975887171872e+02
3.955719183636908838e+02
4.115639944263491543e+02
4.236991328175834042e+02
4.316258588769441644e+02
4.350992394342604825e+02
4.339925310451955056e+02
4.283044069169850445e+02
4.181613113985743553e+02
4.038147227114935731e+02
3.856333482018139875e+02
3.640905246849553123e+02
3.397473360396415956e+02
3.132321760804853170e+02
2.852176639187336491e+02
2.563959542153743314e+02
2.274535645449868184e+02
1.990468663652687837e+02
1.717793458316779720e+02
1.461816479526636954e+02
1.226952701990754804e+02
1.016605761173454283e+02
8.330957792350001512e+01
6.776368690298117770e+01
5.503637875199161300e+01
4.504047406659177710e+01
3.759950821548040523e+01
3.246247070255646605e+01
2.932104753460927071e+01
2.782839709267043915e+01
2.761845167465974882e+01
2.832474378959102168e+01
2.959782859655198806e+01
3.112048640820970746e+01
3.262004949353405436e+01
3.387738383871994330e+01
3.473226307730111984e+01
3.508508802159377638e+01
3.489510893283203785e+01
3.417549704140895273e+01
3.298577574088240993e+01
3.142223734055661311e+01
2.960705715752853706e+01
2.767684713770422178e+01
2.577137910062761961e+01
2.402315376210566455e+01
2.254839261262152306e+01
2.143991194410975965e+01
2.076218555399892196e+01
2.054875035185947141e+01
2.080194817406448138e+01
2.149484866844105113e+01
2.257506757682157073e+01
2.397008915903785109e+01
2.559362884952486894e+01
2.735253033237293252e+01
2.915368972833509886e+01
3.091052786979558675e+01
3.254859169442091371e+01
3.400995061342355541e+01
3.525615595785673406e+01
3.626964374135317115e+01
3.705357513789886781e+01
3.763021771237067270e+01
3.803806578663514415e+01
3.832797609862754484e+01
3.855864642247932039e+01
3.879179346581294396e+01
3.908738829930824465e+01
3.949928388433093573e+01
4.007152341709223720e+01
4.083555495423149040e+01
4.180849934687832814e+01
4.299253887140646668e+01
4.437540913694886058e+01
4.593189856257761505e+01
4.762619270525119219e+01
4.941485074172712899e+01
5.125016377889351560e+01
5.308363330374394451e+01
5.486931197284990702e+01
5.656677224928537129e+01
5.814350797587065500e+01
5.957662557177925322e+01
6.085374026707032868e+01
6.197305844777832107e+01
6.294268186584105962e+01
6.377923173561217141e+01
6.450593147509353287e+01
6.515032180859175526e+01
6.574180145409997067e+01
6.630918626297309970e+01
6.687847331964566422e+01
6.747096779227035768e+01
6.810189704862303017e+01
6.877959399736685953e+01
6.950528278849688490e+01
7.027345332107960019e+01
7.107276592615606603e+01
7.188738965280292348e+01
7.269864875900668721e+01
7.348683271183237764e+01
7.423301763663528163e+01
7.492075349129945039e+01
7.553748696330116275e+01
7.607561567188975005e+01
7.653309899423589968e+01
7.691359238115208541e+01
7.722610526047513702e+01
7.748422444688291932e+01
7.770497345161906821e+01
7.790740646791856250e+01
7.811105359414077043e+01
7.833434103205895838e+01
7.859311074711689571e+01
7.889935265688900756e+01
7.926024379953716448e+01
7.967756388902567721e+01
8.014752771184691937e+01
8.066104057987864451e+01
8.120435491257374849e+01
8.176007367933841863e+01
8.230842387523982495e+01
8.282870248748901076e+01
8.330079132110562057e+01
8.370662877892570464e+01
8.403153487966284274e+01
8.426529759231458172e+01
8.440294692647773900e+01
8.444516725971820392e+01
8.439832435260198906e+01
8.427411016421763179e+01
8.408883583628487202e+01
8.386242570158823639e+01
8.361718541892784629e+01
8.337642913362037689e+01
8.316306072418903739e+01
8.299820010070359899e+01
8.289994408652515290e+01
8.288233776629023453e+01
8.295461734822519873e+01
8.312076223752296755e+01
8.337937787188880634e+01
8.372390316344481676e+01
8.414312048746634787e+01
8.462192298437048521e+01
8.514228292557555733e+01
8.568435203435059577e+01
8.622762056274942211e+01
8.675206099115067104e+01
8.723918803415519108e+01
8.767297333941812099e+01
8.804056729359868427e+01
8.833279482860170617e+01
8.854440829118577483e+01
8.867409752664586620e+01
8.872426986136873950e+01
8.870063154357075064e+01
8.861160770221349026e+01
8.846764883613869301e+01
8.828047564900253974e+01
8.806231198429142637e+01
8.782515594836688422e+01
8.758013173839286480e+01
8.733695646934418733e+01
8.710354668056085359e+01
8.688577740145822759e+01
8.668739732883075533e+01
8.651009088682150150e+01
8.635367231899942908e+01
8.621638691782587216e+01
8.609528960776593465e+01
8.598667071076074819e+01
8.588649498095618640e+01
8.579082466089104742e+01
8.569619966456259874e+01
8.559995224754494814e+01
8.550044131171314632e+01
8.539719673221810581e+01
8.529097222448096716e+01
8.518370972758519599e+01
8.507842454349390948e+01
8.497902525518853167e+01
8.489008404473455016e+01
8.481657654498839349e+01
8.476360953548136479e+01
8.473615302509051617e+01
8.473879343647010387e+01
8.477551950720859963e+01
8.484955167383868968e+01
8.496322050496651457e+01
8.511789604411119115e+01
8.531396765515836478e+01
8.555087051033630985e+01
8.582715292274451713e+01
8.614057679996548700e+01
8.648824382025739510e+01
8.686673745482829645e+01
8.727227301849669061e+01
8.770084863517790552e+01
8.814839004192890570e+01
8.861088484640292506e+01
8.908450178493640692e+01
8.956569324669951015e+01
9.005127987299985648e+01
9.053851681638829518e+01
9.102514183661909897e+01
9.150940701100566343e+01
9.199009401291922927e+01
9.246651539350504834e+01
9.293850264751810641e+01
9.340638132205654642e+01
9.387093472765202762e+01
9.433335588680850492e+01
9.479518897918789833e+01
9.525825972415566412e+01
9.572459712928642261e+01
9.619634603962001052e+01
9.667567229517034377e+01
9.716466359300063971e+01
9.766522729724884755e+01
9.817898953427609854e+01
9.870719885968692608e+01
9.925063838932007343e+01
9.980955137147302025e+01
1.003835835611696581e+02
1.009717470740601470e+02
1.015724091890035226e+02
1.021833077523743327e+02
1.028015956188483386e+02
1.034239146315627380e+02
1.040464982780823675e+02
1.046652991829496102e+02
1.052761387291203476e+02
1.058748732531522307e+02
1.064575697267439693e+02
1.070206839235559642e+02
1.075612320185533974e+02
1.080769471633199430e+02
1.085664116065986207e+02
1.090291574890062805e+02
1.094657266991923024e+02
1.098776858150090021e+02
1.102675898555931724e+02
1.106388944361217881e+02
1.109958155534786073e+02
1.113431394474632441e+02
1.116859885690099077e+02
1.120295509727523182e+02
1.123787837246243697e+02
1.127381030948420744e+02
1.131110740213307650e+02
1.135001147974036684e+02
1.139062313050059601e+02
1.143287952025574299e+02
1.147653803822867502e+02
1.152116682307374163e+02
1.156614306564315910e+02
1.161065961362913015e+02
1.165374007614940410e+02
1.169426232679177673e+02
1.173098952652844531e+02
1.176260789143577057e+02
1.178776966948143468e+02
1.180513967330819014e+02
1.181344349546009340e+02
1.181151522278415200e+02
1.179834261763536176e+02
1.177310753455180077e+02
1.173521984985005986e+02
1.168434314954495079e+02
1.162041090694371093e+02
1.154363226968955018e+02
1.145448708760392975e+02
1.135371026913041845e+02
1.124226620259162388e+02
1.112131422614978646e+02
1.099216683172875690e+02
1.085624243084396596e+02
1.071501482671013861e+02
1.056996189874876677e+02
1.042251561377319433e+02
1.027401574540547813e+02
1.012566935222887565e+02
9.978517743323961042e+01
9.833412335071517418e+01
9.691000134788070852e+01
9.551719359801347764e+01
9.415804963286589668e+01
9.283303453248190351e+01
9.154095960180418956e+01
9.027927945296477219e+01
8.904443907068292674e+01
8.783224918541687032e+01
8.663827122168243022e+01
8.545819083496412816e+01
8.428816070492487711e+01
8.312509616080190256e+01
8.196691012951539790e+01
8.081267812656814442e+01
7.966272801310890372e+01
7.851865130200297926e+01
7.738324224106878546e+01
7.626036860905281856e+01
7.515478633667997599e+01
7.407191074332578751e+01
7.301755673216463549e+01
7.199766706101641489e+01
7.101804096432321955e+01
7.008408035712299977e+01
6.920056533322839698e+01
6.837147028850903041e+01
6.759982810846643986e+01
6.688764792893675803e+01
6.623588822445401547e+01
6.564448310039051648e+01
6.511241897883728313e+01
6.463785346782660213e+01
6.421826772219276336e+01
6.385064303442696598e+01
6.353165075857212685e+01
6.325784294873901814e+01
6.302583498280424834e+01
6.283246935906782227e+01
6.267495368501099051e+01
6.255096676526550681e+01
6.245872831293130645e+01
6.239703053290805457e+01
6.236523259372631856e+01
6.236321974649829514e+01
6.239133261718505707e+01
6.245027004490346201e+01
6.254097413583717469e+01
6.266450395638831594e+01
6.282190506690403708e+01
6.301408277311730899e+01
6.324168566410325809e+01
6.350500574623625738e+01
6.380389841039389154e+01
6.413772733294071315e+01
6.450533581024376417e+01
6.490504367793191420e+01
6.533467100445305675e+01
6.579158531456458547e+01
6.627276918494509061e+01
6.677490573992375289e+01
6.729447516123239836e+01
6.782785890701312326e+01
6.837144561364510764e+01
6.892173513831941989e+01
6.947543518585197830e+01
7.002954659435869189e+01
7.058143425666784765e+01
7.112888110250534623e+01
7.167012358740159073e+01
7.220386676685248517e+01
7.272928065348516213e+01
7.324597800969850425e+01
7.375397416397971995e+01
7.425363180286258569e+01
7.474559367459291082e+01
7.523070497681661095e+01
7.570992951497093770e+01
7.618426276570292544e+01
7.665464587246421502e+01
7.712188397108428717e+01
7.758657088729934515e+01
7.804902418091046457e+01
7.850923330237316122e+01
7.896682304164933441e+01
7.942103380981328087e+01
7.987072035581984153e+01
8.031436887953302062e+01
8.075013314466012559e+01
8.117588876433150347e+01
8.158930363748727643e+01
8.198792301333773480e+01
8.236926574553271507e+01
8.273092803552930263e+01
8.307069152097015774e+01
8.338663095614676024e+01
8.367721642901150858e+01
8.394140517382903965e+01
8.417871878532902485e+01
8.438930229971826691e+01
8.457396092762706985e+01
8.473417085107564617e+01
8.487206341500230167e+01
8.499038156807289113e+01
8.509240967132475930e+01
8.518187823536646874e+01
8.526284659820498746e+01
8.533956768067368159e+01
8.541634024812826453e+01
8.549735525004960834e+01
8.558654224909055586e+01
8.568742281851393727e+01
8.580297699124477617e+01
8.593552923172856595e+01
8.608665912212383375e+01
8.625714037053876382e+01
8.644691121784606480e+01
8.665507697125505615e+01
8.687994443954525536e+01
8.711908728118194745e+01
8.736943796840533594e+01
8.762740148364642323e+01
8.788898719319688269e+01
8.814995050433202550e+01
8.840594084467306857e+01
8.865264670142246928e+01
8.888593471553471659e+01
8.910197582982247866e+01
8.929735486722879045e+01
8.946916112600113991e+01
8.961505772277575943e+01
8.973332915320500547e+01
8.982290731205976897e+01
8.988337741748816256e+01
8.991496619104940180e+01
8.991851441593288996e+01
8.989543708526980481e+01
8.984767332480912216e+01
8.977762826887855852e+01
8.968811054781336622e+01
8.958226492207609226e+01
8.946350210812089188e+01
8.933542607882019126e+01
8.920175833323150982e+01
8.906626066391800123e+01
8.893265444880189818e+01
8.880453806112869586e+01
8.868530207701068946e+01
8.857804353654459817e+01
8.848548152891707730e+01
8.840987613252566746e+01
8.835295397276340168e+01
8.831584367655335654e+01
8.829902577353550441e+01
8.830230056814551176e+01
8.832477822018340419e+01
8.836489231261316490e+01
8.842044100457020761e+01
8.848865431103023127e+01
8.856628882144096337e+01
8.864974546204602746e+01
8.873520719602797158e+01
8.881879019071422476e+01
8.889670216361714949e+01
8.896540008024030044e+01
8.902173913223228396e+01
8.906310396575970856e+01
8.908751525733373455e+01
8.909370490080800664e+01
8.908115519682480965e+01
8.905009894035745788e+01
8.900148050036105474e+01
8.893687964555516601e+01
8.885840183155454497e+01
8.876854191750973655e+01
8.867003004394989318e+01
8.856566768023937186e+01
8.845816571517525517e+01
8.834999314419108885e+01
8.824324714835773875e+01
8.813955189377679744e+01
8.803999194432957154e+01
8.794508479650146171e+01
8.785479256564985917e+01
8.776857317779511902e+01
8.768546452161068316e+01
8.760419663866255746e+01
8.752332344241668238e+01
8.744136265651196993e+01
8.735693647765802439e+01
8.726890001626934179e+01
8.717645016429253246e+01
8.707920653407602174e+01
8.697725846176236075e+01
8.687117633420999141e+01
8.676198494452980015e+01
8.665110255644238180e+01
8.654025020939550927e+01
8.643133798747460617e+01
8.632633765381793012e+01
8.622715047836699398e+01
8.613547997015292879e+01
8.605271943592481421e+01
8.597986233956675051e+01
8.591744228416310136e+01
8.586550570168553520e+01
8.582361931754708451e+01
8.579091133747753872e+01
8.576614211715731528e+01
8.574779939820041363e+01
8.573420897571584476e+01
8.572365382368364806e+01
8.571448984979525676e+01
8.570525121103982258e+01
8.569473608891489391e+01
8.568206683837117055e+01
8.566672003829056337e+01
8.564852383278105208e+01
8.562762364215414834e+01
8.560442020666465623e+01
8.557948434280278605e+01
8.555345651358457815e+01
8.552693963377390673e+01
8.550039440308839289e+01
8.547404744175790370e+01
8.544781905201055849e+01
8.542127960807498255e+01
8.539363767044578424e+01
8.536376298638069215e+01
8.533024459825672636e+01
8.529148045231130482e+01
8.524579362203206756e+01
8.519156616395250126e+01
8.512738277284078947e+01
8.505217288641388507e+01
8.496534055283947851e+01
8.486687260585246406e+01
8.475741499019569858e+01
8.463831098950660703e+01
8.451159686969073448e+01
8.437995252375206690e+01
8.424660898163261891e+01
8.411521600244893193e+01
8.398967642371341924e+01
8.387395701756889821e+01
8.377188660813973797e+01
8.368695288178322755e+01
8.362210914691357289e+01
8.357960409559753145e+01
8.356084436805771531e+01
8.356629801477434683e+01
8.359544605657328020e+01
8.364678422730274576e+01
8.371787612268731493e+01
8.380545501800853003e+01
8.390556948077568222e+01
8.401376477194560266e+01
8.412529016922243841e+01
8.423532186838960456e+01
8.433918928047431507e+01
8.443259330935146068e+01
8.451180568338101295e+01
8.457383942230356411e+01
8.461658190563095161e+01
8.463888586462019248e+01
8.464061422913975719e+01
8.462263717458969836e+01
8.458678293659360747e+01
8.453574605424479671e+01
8.447295848899899795e+01
8.440243090719300767e+01
8.432857131040657350e+01
8.425599018127537931e+01
8.418930132984672809e+01
8.413292682573052161e+01
8.409091430513942100e+01
8.406677272132650103e+01
8.406333377348420299e+01
8.408264240949966961e+01
8.412588042342090944e+01
8.419332501754090003e+01
8.428434181435089556e+01
8.439741230957429252e+01
8.453019326349087237e+01
8.467960652319143833e+01
8.484195431840338131e+01
8.501305643298219650e+01
8.518840415205190197e+01
8.536332638087266389e+01
8.553316196657195292e+01
8.569343368655005122e+01
8.584001755697184421e+01
8.596930176752631780e+01
8.607833061706814703e+01
8.616492740204145662e+01
8.622779285129567484e+01
8.626657290188920513e+01
8.628189426191319455e+01
8.627536417466234298e+01
8.624953359936556296e+01
8.620782305284812708e+01
8.615441195582587852e+01
8.609409525503146199e+01
8.603210968619046639e+01
8.597393726036020212e+01
8.592509104025712929e+01
8.589089179634247273e+01
8.587624457741600281e+01
8.588542335436476094e+01
8.592187443202138297e+01
8.598804645081474973e+01
8.608525611465043426e+01
8.621359537345627189e+01
8.637188620184998911e+01
8.655768641818247033e+01
8.676734691116445219e+01
8.699611957346760960e+01
8.723831293498186312e+01
8.748748833801906244e+01
8.773669110247267611e+01
8.797870586012530225e+01
8.820632565299163730e+01
8.841262457521247597e+01
8.859122042013663645e+01
8.873651956766430260e+01
8.884393086898359115e+01
8.891004186149581301e+01
8.893274909703181663e+01
8.891133889991068884e+01
8.884651564796465095e+01
8.874037701323776162e+01
8.859633923926126897e+01
8.841901518421467188e+01
8.821405225643860604e+01
8.798793762556887543e+01
8.774777816323810953e+01
8.750106502266162067e+01
8.725543149573340429e+01
8.701841334794677607e+01
8.679722007059987732e+01
8.659852393111982849e+01
8.642827257411333619e+01
8.629153054440418202e+01
8.619235292252054137e+01
8.613369371360467142e+01
8.611734844997879179e+01
8.614393182095494694e+01
8.621288801989345529e+01
8.632253230888882456e+01
8.647012011061195835e+01
8.665194201635044635e+01
8.686344052357276269e+01
8.709934424314943158e+01
8.735381677718160631e+01
8.762061632635899855e+01
8.789326247986313945e+01
8.816520651094947425e+01
8.843000137379173964e+01
8.868146751949929296e+01
8.891385116507919406e+01
8.912197166962495487e+01
8.930135270855336671e+01
8.944833486170324477e+01
8.956016636808246290e+01
8.963506813880263735e+01
8.967227093675693084e+01
8.967202257355586426e+01
8.963556481562277156e+01
8.956507942466315342e+01
8.946360465579883225e+01
8.933492464371875030e+01
8.918343589803559723e+01
8.901399441048901906e+01
8.883174876029484324e+01
8.864196661066695526e+01
8.844986042821706462e+01
8.826041934065065675e+01
8.807825387298989028e+01
8.790745957677459899e+01
8.775150499426828787e+01
8.761314704137923570e+01
8.749437738974145873e+01
8.739640043977617268e+01
8.731964241901624746e+01
8.726379050623637568e+01
8.722785720704175105e+01
8.721026701481649468e+01
8.720895809540117227e+01
8.722149449331247695e+01
8.724518183683865402e+01
8.727718059537576778e+01
8.731461236501708356e+01
8.735465313755111083e+01
8.739461139599971773e+01
8.743198870505160869e+01
8.746452169827914247e+01
8.749020621747344251e+01
8.750730506313635715e+01
8.751434398539595350e+01
8.751009838165460053e+01
8.749357473691584630e+01
8.746399160803149186e+01
8.742076319823650010e+01
8.736349075940121622e+01
8.729196242801995709e+01
8.720616342086412942e+01
8.710629699710379725e+01
8.699281296160756938e+01
8.686644401811106775e+01
8.672824383969427231e+01
8.657962311198836858e+01
8.642237842747636023e+01
8.625870835913291046e+01
8.609121247169086644e+01
8.592286862641753942e+01
8.575698554526964301e+01
8.559712947747971157e+01
8.544702353048488419e+01
8.531042357504374252e+01
8.519097384030499143e+01
8.509204706416917929e+01
8.501657757645259039e+01
8.496689511448872167e+01
8.494456857295152474e+01
8.495027016799203068e+01
8.498366822247106711e+01
8.504335836343337007e+01
8.512683879419290633e+01
8.523053556898223349e+01
8.534988074596915908e+01
8.547944351095340210e+01
8.561311131572043109e+01
8.574431524953479311e+01
8.586629185877158932e+01
8.597237142004895816e+01
8.605627825019078614e+01
8.611243210877351828e+01
8.613623303060514047e+01
8.612431774056312861e+01
8.607477409327680107e+01
8.598730038060746494e+01
8.586330112544774806e+01
8.570591269974268300e+01
8.551995525008113930e+01
8.531181215612649282e+01
8.508923943591862837e+01
8.486111414652042129e+01
8.463713052932646974e+01
8.442745810052412025e+01
8.424237624708126759e+01
8.409190170861387514e+01
8.398542471830180034e+01
8.393137021226584693e+01
8.393689768267893214e+01
8.400765342825837934e+01
8.414758293163244218e+01
8.435881037990726838e+01
8.464158860329585821e+01
8.499431797621753049e+01
8.541363147502174513e+01
8.589453709406730297e+01
8.643060956950235152e+01
8.701421959432501296e+01
8.763678797175988677e+01
8.828905318289855586e+01
8.896133903318583691e+01
8.964381136029084018e+01
9.032671498404310739e+01
9.100058388493883399e+01
9.165641971608928884e+01
9.228583658871750117e+01
9.288117265190905414e+01
9.343557001995999656e+01
9.394302791717244361e+01
9.439843333025005734e+01
9.479757547765650827e+01
9.513714865795930109e+01
9.541474923281394638e+01
9.562886965766602998e+01
9.577889299056302264e+01
9.586508698983654142e+01
9.588859715325628486e+01
9.585143665427698068e+01
9.575646837803363098e+01
9.560737576406295091e+01
9.540861598521651388e+01
9.516535305113907839e+01
9.488336550312078543e+01
9.456892745219263929e+01
9.422866424804794860e+01
9.386938208672135886e+01
9.349787960087704164e+01
9.312074449655656849e+01
9.274414632114070400e+01
9.237363421992263568e+01
9.201395006595326720e+01
9.166886894738165381e+01
9.134107628448070670e+01
9.103208988690886372e+01
9.074223444137749084e+01
9.047067169381686824e+01
9.021548690753949984e+01
8.997382954182103276e+01
8.974210193975426364e+01
8.951618712044626136e+01
8.929170464747842573e+01
8.906428065587249421e+01
8.882981840203235890e+01
8.858475393096331629e+01
8.832628438930993298e+01
8.805255425639884947e+01
8.776279210011887244e+01
8.745738782276279721e+01
8.713790883025465916e+01
8.680705296594879883e+01
8.646854146298828425e+01
8.612695760735712724e+01
8.578753995931865006e+01
8.545594075950798185e+01
8.513796272143355282e+01
8.483928495860807573e+01
8.456519265134360808e+01
8.432032104192302313e+01
8.410842545124168623e+01
8.393218678532537069e+01
8.379305831199074817e+01
8.369116050507662408e+01
8.362522419217172853e+01
8.359258530075831573e+01
8.358923016190978217e+01
8.360988781188437713e+01
8.364816737098864508e+01
8.369673535250502994e+01
8.374752849399536103e+01
8.379199562485155184e+01
8.382136309246888572e+01
8.382691665722749974e+01
8.380029186002121833e+01
8.373376437367313940e+01
8.362053249077514749e+01
8.345497996539229746e+01
8.323290858923557778e+01
8.295172959256436229e+01
8.261060184937890938e+01
8.221050818559727702e+01
8.175425848931158157e+01
8.124641346399457120e+01
8.069312435817788298e+01
8.010189045574369970e+01
7.948123693282234115e+01
7.884032414362697239e+01
7.818850321764405464e+01
7.753483716103265522e+01
7.688761241006753266e+01
7.625386965473182954e+01
7.563898141644345685e+01
7.504630760253347432e+01
7.447695501654314398e+01
7.392966578575125425e+01
7.340085030237844421e+01
7.288477452501196296e+01
7.237389974536128534e+01
7.185936334532081560e+01
7.133157822920493629e+01
7.078091967903183956e+01
7.019845548337929131e+01
6.957667215512290682e+01
6.891014559678328055e+01
6.819610294823586116e+01
6.743482637209098129e+01
6.662985629693945100e+01
6.578796288757344257e+01
6.491886816508738889e+01
6.403471750253940797e+01
6.314931655141917588e+01
6.227716808390388792e+01
6.143235885973091825e+01
6.062736199968033191e+01
5.987183120817673654e+01
5.917146726967075665e+01
5.852704045779887565e+01
5.793364478467430700e+01
5.738025110983333121e+01
5.684960908070974739e+01
5.631852881647564857e+01
5.575854617467226859e+01
5.513695442110635980e+01
5.441815688279885421e+01
5.356527432828235646e+01
5.254192071339053172e+01
5.131404857341447467e+01
4.985175773333369875e+01
4.813096286583980543e+01
4.613482429741418400e+01
4.385486244205947770e+01
4.129170000227283310e+01
3.845540342292456160e+01
3.536542704562180717e+01
3.205019427396871379e+01
2.854638161551517683e+01
2.489799334615778648e+01
2.115533665126988083e+01
1.737401365202282122e+01
1.361404555866551824e+01
9.939235315332554777e+00
6.416846777749288577e+00
3.117650225326789926e+00
1.163403754030299941e-01
-2.507711624698191422e+00
-4.669457631575315126e+00
-6.277055308736102290e+00
-7.230805498821346156e+00
-7.422344756252912568e+00
-6.734307917519516629e+00
-5.040677975126578225e+00
-2.208021119181364789e+00
1.902231220136448187e+00
7.430345517634042274e+00
1.451365658781879198e+01
2.328078986469831690e+01
3.384486650130190100e+01
4.629591813159227343e+01
6.069282126053174409e+01
7.705514150286020936e+01
9.535533731170112048e+01
1.155118076083889349e+02
1.373832854715681435e+02
1.607650563812259463e+02
1.853874319023299222e+02
2.109168313190028812e+02
2.369597122834410072e+02
2.630694637655070096e+02
2.887562230571091391e+02
3.134994216263086741e+02
3.367627069636929491e+02
3.580107343820819779e+02
3.767271932523994451e+02
3.924333244561245237e+02
4.047061167136021709e+02
4.131953373123049005e+02
4.176385646603547457e+02
4.178734501970035353e+02
4.138465372065153929e+02
4.056181059466022134e+02
3.933626908153691488e+02
3.773651126282004498e+02
3.580120857554214240e+02
3.357796741489086116e+02
3.112170817259432170e+02
2.849274459781826749e+02
2.575464630967267112e+02
2.297197845583546894e+02
2.020801944693270400e+02
1.752255938219079496e+02
1.496987767425090397e+02
1.259698978100620508e+02
1.044223893798442191e+02
8.534291456859088498e+01
6.891573491549910102e+01
5.522164683535583407e+01
4.424140960041439286e+01
3.586336392726317968e+01
2.989473786440773750e+01
2.607596003761082670e+01
2.409716780548496118e+01
2.361600955098290200e+01
2.427580371418887495e+01
2.572313239206322777e+01
2.762401274434443010e+01
2.967790015227171452e+01
3.162892481236281839e+01
3.327394027583377323e+01
3.446715551351326923e+01
3.512132154823868291e+01
3.520563771672335918e+01
3.474071525288347573e+01
3.379108672442072248e+01
3.245586092741594086e+01
3.085819764431023060e+01
2.913430432231013611e+01
2.742264407624125511e+01
2.585398907975320171e+01
2.454286284833268539e+01
2.358079748585208790e+01
2.303169270630240106e+01
2.292941254691849196e+01
2.327760849653468256e+01
2.405161540588574809e+01
2.520214415349184733e+01
2.666039512219416352e+01
2.834414994159097034e+01
3.016435951714691655e+01
3.203174518029838680e+01
3.386295998113720884e+01
3.558591383989860191e+01
3.714394641779155393e+01
3.849863226933501181e+01
3.963110671978559907e+01
4.054191265335369110e+01
4.124946887626742154e+01
4.178735240281853436e+01
4.220065917486609663e+01
4.254175752184335835e+01
4.286577491256530692e+01
4.322615691941775395e+01
4.367061713616753593e+01
4.423774825940679278e+01
4.495450534988895441e+01
4.583469897510208568e+01
4.687855422176799181e+01
4.807331339699148032e+01
4.939478580111164518e+01
5.080968284905060273e+01
5.227852965575234379e+01
5.375890981711977190e+01
5.520878920725778016e+01
5.658966912195609211e+01
5.786934392877917332e+01
5.902407745614861057e+01
6.004006100172038174e+01
6.091407648566404021e+01
6.165334797305207815e+01
6.227462523218949997e+01
6.280259691747978934e+01
6.326777665401475303e+01
6.370403520312158463e+01
6.414597315963838753e+01
6.462633021507087960e+01
6.517361808284120173e+01
6.581013947875995029e+01
6.655052091843711537e+01
6.740084561773205962e+01
6.835842561950724416e+01
6.941220546029141758e+01
7.054374452259744999e+01
7.172868452533082007e+01
7.293858124983184155e+01
7.414295439186339820e+01
7.531140487406899808e+01
7.641564600598564994e+01
7.743131051943581156e+01
7.833941657994812147e+01
7.912740472237281608e+01
7.978969229522564888e+01
8.032772878763374536e+01
8.074957037306062091e+01
8.106902528547513498e+01
8.130444934514846977e+01
8.147729207206577939e+01
8.161050558674186561e+01
8.172693301546934208e+01
8.184778778266822030e+01
8.199132470882096868e+01
8.217178367949281892e+01
8.239866417970631574e+01
8.267636156430206995e+01
8.300417179031417447e+01
8.337664242748208210e+01
8.378422688056292600e+01
8.421417976558699081e+01
8.465161776424797324e+01
8.508066513526665631e+01
8.548560039711445313e+01
8.585192713262952680e+01
8.616730189161199860e+01
8.642226559859879842e+01
8.661074247075941912e+01
8.673028979703614993e+01
8.678209820509047745e+01
8.677076018846692307e+01
8.670383974867446852e+01
8.659128449489146817e+01
8.644473130343908451e+01
8.627675784625164113e+01
8.610013365361508875e+01
8.592711616360902838e+01
8.576883324771263517e+01
8.563478214135840005e+01
8.553246453830622897e+01
8.546716668693393615e+01
8.544188143986703210e+01
8.545736155378185117e+01
8.551228668018005408e+01
8.560351829924042022e+01
8.572641826522186648e+01
8.587520310957891922e+01
8.604330970914696763e+01
8.622374935813012087e+01
8.640943495722413559e+01
8.659346863068608968e+01
8.676938223939588113e+01
8.693133042413568035e+01
8.707423574322660897e+01
8.719389352468986942e+01
8.728704034996505357e+01
8.735139443896369471e+01
8.738567315194774210e+01
8.738959207922086136e+01
8.736384809099814674e+01
8.731008801282857235e+01
8.723085963710371971e+01
8.712954233578895469e+01
8.701025420251195897e+01
8.687773195620673050e+01
8.673718251567203197e+01
8.659410496674746582e+01
8.645408671677014922e+01
8.632257973783519844e+01
8.620466545338065600e+01
8.610482154017722678e+01
8.602670238331404562e+01
8.597295160375064427e+01
8.594505810981873140e+01
8.594327264753403028e+01
8.596659297521880205e+01
8.601282584377825913e+01
8.607872747741589592e+01
8.616021819371745494e+01
8.625266227319389145e+01
8.635119897147464485e+01
8.645110319034743895e+01
8.654815457188109917e+01
8.663898913011298930e+01
8.672140902150874808e+01
8.679462704295103492e+01
8.685942485617793807e+01
8.691821112835670249e+01
8.697497036581494001e+01
8.703510285169910787e+01
8.710516109315132383e+01
8.719249605308186801e+01
8.730483616389361146e+01
8.744982382950540512e+01
8.763453886401781290e+01
8.786504135285521500e+01
8.814596452631364798e+01
8.848018562858234759e+01
8.886859778609135674e+01
8.931000018289552145e+01
8.980111654801972065e+01
9.033673980263964154e+01
9.090999617794450671e+01
9.151271318226633866e+01
9.213586612653647023e+01
9.277007551752296877e+01
9.340612130681248004e+01
9.403544151427205122e+01
9.465058120899591643e+01
9.524556401260309713e+01
9.581616010490159852e+01
9.636003680112590075e+01
9.687678106763159747e+01
9.736779493014859099e+01
9.783607398206100925e+01
9.828588601716690221e+01
9.872237217065053017e+01
9.915110328279429552e+01
9.957762045588064836e+01
1.000069952401030093e+02
1.004434387829939936e+02
1.008899889173331701e+02
1.013482952773566126e+02
1.018185172052184697e+02
1.022993401952741266e+02
1.027881087788866949e+02
1.032810627157274155e+02
1.037736602146195253e+02
1.042609615702252199e+02
1.047380440701021200e+02
1.052004173033959091e+02
1.056444070003059039e+02
1.060674781226241521e+02
1.064684724613278917e+02
1.068477420005676208e+02
1.072071661971103822e+02
1.075500509109513843e+02
1.078809127080817802e+02
1.082051629967713211e+02
1.085287113636895810e+02
1.088575138250325409e+02
1.091970968056363631e+02
1.095520863855151532e+02
1.099257752402039472e+02
1.103197559647348385e+02
1.107336451260561319e+02
1.111649150623049707e+02
1.116088476228919717e+02
1.120586104832042764e+02
1.125054538597479876e+02
1.129390156141384693e+02
1.133477165292312208e+02
1.137192222229956400e+02
1.140409447941676575e+02
1.143005546043524845e+02
1.144864752103325145e+02
1.145883324627778137e+02
1.145973364518792295e+02
1.145065762319065215e+02
1.143112169524548278e+02
1.140085927821774874e+02
1.135981960762085805e+02
1.130815708476639259e+02
1.124621218270659710e+02
1.117448576759309447e+02
1.109360886099588583e+02
1.100430981474618761e+02
1.090738124931849313e+02
1.080364869209713561e+02
1.069394266778412117e+02
1.057907564530108147e+02
1.045982463361304582e+02
1.033691987646082140e+02
1.021103957804729419e+02
1.008281009793635121e+02
9.952810673250746731e+01
9.821581412458793636e+01
9.689633149070110107e+01
9.557457735297452928e+01
9.425537330601552810e+01
9.294351489659823073e+01
9.164381036782447154e+01
9.036108186836929690e+01
8.910012549963710171e+01
8.786563395750313532e+01
8.666208527328336686e+01
8.549360686750740967e+01
8.436382711285710911e+01
8.327572563838724307e+01
8.223149657976404114e+01
8.123243890524116750e+01
8.027888238842035662e+01
7.937016137718931930e+01
7.850463973707373100e+01
7.767978990933575290e+01
7.689232548558025826e+01
7.613837910509995766e+01
7.541371822422226501e+01
7.471398686858218241e+01
7.403495890730141582e+01
7.337278788500510984e+01
7.272423803938329456e+01
7.208688244781204446e+01
7.145925540378762264e+01
7.084095014819013159e+01
7.023265627110693288e+01
6.963613314074702032e+01
6.905412246517954600e+01
6.849020450401557980e+01
6.794860739174200148e+01
6.743398147995556258e+01
6.695115265175999753e+01
6.650486895472444360e+01
6.609955748333712222e+01
6.573910427126520517e+01
6.542667050586577204e+01
6.516455536730022402e+01
6.495411143546013477e+01
6.479571718998737140e+01
6.468880582810683677e+01
6.463194628023543942e+01
6.462296875256670603e+01
6.465912540759261162e+01
6.473727420233510088e+01
6.485407249945930630e+01
6.500616737227197461e+01
6.519036907756039056e+01
6.540379694240054675e+01
6.564398786087620863e+01
6.590896199466911298e+01
6.619724146564132639e+01
6.650782370733698201e+01
6.684011142478048839e+01
6.719380612805205999e+01
6.756877481972192356e+01
6.796490010838802220e+01
6.838192514925279397e+01
6.881930696485261478e+01
6.927608819968075693e+01
6.975079953363972152e+01
7.024139920487723998e+01
7.074525713119493275e+01
7.125918422428249244e+01
7.177950800799604281e+01
7.230219092933899105e+01
7.282298461564646175e+01
7.333761025900729180e+01
7.384195560971708971e+01
7.433227555371168194e+01
7.480538320539362473e+01
7.525882042471300792e+01
7.569099572036546419e+01
7.610127941176286015e+01
7.649004996564676162e+01
7.685868666666165439e+01
7.720950798483731603e+01
7.754565662045841634e+01
7.787093798377627252e+01
7.818961752085648698e+01
7.850619047116242655e+01
7.882513380454362562e+01
7.915065398557943865e+01
7.948644474727281306e+01
7.983546729125318109e+01
8.019976571322659709e+01
8.058032774297068102e+01
8.097699891408831263e+01
8.138845374309597958e+01
8.181222801879681583e+01
8.224481010551460258e+01
8.268178689113601365e+01
8.311803680687789608e+01
8.354796127722019605e+01
8.396574156730984839e+01
8.436561015747956560e+01
8.474212051941209722e+01
8.509040380401992820e+01
8.540639840480801581e+01
8.568704226373139932e+01
8.593041747817873954e+01
8.613584126570087562e+01
8.630389894043842958e+01
8.643641797497086543e+01
8.653638515450826674e+01
8.660781166761756822e+01
8.665555415712135812e+01
8.668509988564278501e+01
8.670232863666832657e+01
8.671326151200774746e+01
8.672381138084234919e+01
8.673954426019379582e+01
8.676546472775277152e+01
8.680583388133575795e+01
8.686402674826308612e+01
8.694243552611963821e+01
8.704242011636529242e+01
8.716430633813480711e+01
8.730742921562422509e+01
8.747021594603477013e+01
8.765030322334270352e+01
8.784467972351355058e+01
8.804984549659393167e+01
8.826197826771218047e+01
8.847709814514126947e+01
8.869122319208510419e+01
8.890050833991332979e+01
8.910136230221930020e+01
8.929053898881920759e+01
8.946520256720415887e+01
8.962296610904401462e+01
8.976190599025044037e+01
8.988055600823318514e+01
8.997788513375726893e+01
9.005326517147899779e+01
9.010643341022453967e+01
9.013745506238694816e+01
9.014669024006016684e+01
9.013476898694592876e+01
9.010257520804127296e+01
9.005124070932399150e+01
8.998214802626216624e+01
8.989693932672993526e+01
8.979752798109011280e+01
8.968610732217470627e+01
8.956515255828198008e+01
8.943741120129462274e+01
8.930587720887945125e+01
8.917374540827481155e+01
8.904434534826211234e+01
8.892105379655825459e+01
8.880718814306186459e+01
8.870588406929758207e+01
8.861996224263145905e+01
8.855179244789454174e+01
8.850316113167575338e+01
8.847515256081973689e+01
8.846804973700619712e+01
8.848126515471712139e+01
8.851330598607258082e+01
8.856177993181894692e+01
8.862344314998655648e+01
8.869429124731341574e+01
8.876969075352182870e+01
8.884454612606697310e+01
8.891349492095488927e+01
8.897112295598694232e+01
8.901218830989604669e+01
8.903184250158253121e+01
8.902583816031209096e+01
8.899071314295117929e+01
8.892394022121678177e+01
8.882403542927671936e+01
8.869061985785342017e+01
8.852443170595333299e+01
8.832729029997736347e+01
8.810201324313919713e+01
8.785229314607940410e+01
8.758254146091849179e+01
8.729770832063317698e+01
8.700308935074716032e+01
8.670413017102238484e+01
8.640623753286662634e+01
8.611460760489759991e+01
8.583407841230186364e+01
8.556901284365461891e+01
8.532321495976910342e+01
8.509987975583926811e+01
8.490157691082556823e+01
8.473026243563167270e+01
8.458731490695780053e+01
8.447358877836161639e+01
8.438947737070225230e+01
8.433497927607209022e+01
8.430975931480078600e+01
8.431320147396546361e+01
8.434444602393450907e+01
8.440241150910885892e+01
8.448579974131828862e+01
8.459308538583616155e+01
8.472249504252874885e+01
8.487197930173685734e+01
8.503918359475693478e+01
8.522142526556062592e+01
8.541568211093628804e+01
8.561859882196883120e+01
8.582651572045297428e+01
8.603552139502885154e+01
8.624153134876918614e+01
8.644039057839187024e+01
8.662799647720324003e+01
8.680043638903146075e+01
8.695413360444688067e+01
8.708599336957452408e+01
8.719353851143434042e+01
8.727502687184549757e+01
8.732954353351027521e+01
8.735705871777403786e+01
8.735844775836039844e+01
8.733546900646817335e+01
8.729070115907246930e+01
8.722744057256525707e+01
8.714956321171696629e+01
8.706135941010310830e+01
8.696734865491920630e+01
8.687208479520455739e+01
8.677996232468409232e+01
8.669503405244465455e+01
8.662084936968844318e+01
8.656032071536810690e+01
8.651562622614032705e+01
8.648815057085904812e+01
8.647846718434671232e+01
8.648635880685925770e+01
8.651087418533747098e+01
8.655041467831033231e+01
8.660284389827971552e+01
8.666561159073732767e+01
8.673588386872138756e+01
8.681066956731220330e+01
8.688693773296262179e+01
8.696171803513094289e+01
8.703218161920705143e+01
8.709569833822099838e+01
8.714987178436562942e+01
8.719255466323620851e+01
8.722184800559281825e+01
8.723609001432963339e+01
8.723384118057434478e+01
8.721387107935569816e+01
8.717515454514196449e+01
8.711688137158795087e+01
8.703848346234113365e+01
8.693967954020510547e+01
8.682053760376014395e+01
8.668155052659977855e+01
8.652371955433423523e+01
8.634863762739010440e+01
8.615856299282395980e+01
8.595647390056245740e+01
8.574609389076577770e+01
8.553188008745861737e+01
8.531896614395566303e+01
8.511305623751947280e+01
8.492026883258741066e+01
8.474693300029255738e+01
8.459934282681251716e+01
8.448348068151304346e+01
8.440472233837039084e+01
8.436753856483372260e+01
8.437521270533025586e+01
8.442959165372556640e+01
8.453088714179217789e+01
8.467754461448646452e+01
8.486619144966390138e+01
8.509167447751808311e+01
8.534719136965223640e+01
8.562451264078138990e+01
8.591428998384026272e+01
8.620643619480587461e+01
8.649056184994286411e+01
8.675644472192638545e+01
8.699450893903137683e+01
8.719628654634745146e+01
8.735483558806600968e+01
8.746509089142899995e+01
8.752412460510066694e+01
8.753129984514552575e+01
8.748830682608185327e+01
8.739907662491357598e+01
8.726957427009509161e+01
8.710748269063262228e+01
8.692179218083995806e+01
8.672231908409351320e+01
8.651917985441727410e+01
8.632225101970051639e+01
8.614064629733702816e+01
8.598224067158355410e+01
8.585327070925096393e+01
8.575803403659638491e+01
8.569870627028538479e+01
8.567528613747956001e+01
8.568567093409266988e+01
8.572585746751603608e+01
8.579025604746466627e+01
8.587209693700832247e+01
8.596390278378218852e+01
8.605799811525103848e+01
8.614702167475982719e+01
8.622440980953976464e+01
8.628481945653514629e+01
8.632446367225490746e+01
8.634133753152700308e+01
8.633532097229038982e+01
8.630815029900838908e+01
8.626326205173835149e+01
8.620551965377538295e+01
8.614083863488082216e+01
8.607573849972199298e+01
8.601684948240780670e+01
8.597040723563256392e+01
8.594177068076021442e+01
8.593499530973903688e+01
8.595249129108965747e+01
8.599479081398858682e+01
8.606044272467279654e+01
8.614604284214472329e+01
8.624639997535220459e+01
8.635482971424895027e+01
8.646355773093770836e+01
8.656420960299362832e+01
8.664835630359985430e+01
8.670807958136622062e+01
8.673652283109875327e+01
8.672839101095316039e+01
8.668036613054709960e+01
8.659141196756449688e+01
8.646294467871850031e+01
8.629885748841391546e+01
8.610539489920870437e+01
8.589088186530986491e+01
8.566532234346423991e+01
8.543988889867003422e+01
8.522633311107517784e+01
8.503635119061031844e+01
8.488094219261145668e+01
8.476979594099380222e+01
8.471074740943934955e+01
8.470932922866053616e+01
8.476844835753607299e+01
8.488820638243704764e+01
8.506587260311337673e+01
8.529601211796480698e+01
8.557075829714010240e+01
8.588021577055215516e+01
8.621296783431850486e+01
8.655665830381531123e+01
8.689861474476580838e+01
8.722647575971727463e+01
8.752878773778284938e+01
8.779553841567593508e+01
8.801859771885588657e+01
8.819204545983350840e+01
8.831236872746008260e+01
8.837852500074657769e+01
8.839187078504248518e+01
8.835596605962741990e+01
8.827627060090478039e+01
8.815975570786184790e+01
8.801445686722762218e+01
8.784899722224398033e+01
8.767211166104374342e+01
8.749219877604895146e+01
8.731692619345730577e+01
8.715290939349739574e+01
8.700547832900474532e+01
8.687854037549371355e+01
8.677453973457504333e+01
8.669450840009349690e+01
8.663819754713128418e+01
8.660427483912269508e+01
8.659056575117962495e+01
8.659431964745357391e+01
8.661247894349307330e+01
8.664193099897194372e+01
8.667972601457550752e+01
8.672324677356948541e+01
8.677032168398254441e+01
8.681927726616873997e+01
8.686893227809950702e+01
8.691853998448598873e+01
8.696768806822963427e+01
8.701617170451477534e+01
8.706385413364787951e+01
8.711053092596573322e+01
8.715581448077209359e+01
8.719905017921298906e+01
8.723927599050355752e+01
8.727522996536549726e+01
8.730540772815369621e+01
8.732816626436064666e+01
8.734186699084312977e+01
8.734504585965153467e+01
8.733659589766341469e+01
8.731594578622706138e+01
8.728321922934752308e+01
8.723935760485562696e+01
8.718619326433497463e+01
8.712646269494642581e+01
8.706375351195127621e+01
8.700238529603718973e+01
8.694722592569888775e+01
8.690345456364923393e+01
8.687628285946341578e+01
8.687065115431704498e+01
8.689092075203826937e+01
8.694058043550346326e+01
8.702198822417965118e+01
8.713616633863384209e+01
8.728266532065498495e+01
8.745950861244591579e+01
8.766322239206853340e+01
8.788895220665523311e+01
8.813066134404624563e+01
8.838140013258832539e+01
8.863363236331376527e+01
8.887959741970971095e+01
8.911168895295966763e+01
8.932282612117866449e+01
8.950679579804324248e+01
8.965854470326750914e+01
8.977440437622898628e+01
8.985223614422834260e+01
8.989148722129479552e+01
8.989315645887242567e+01
8.985967319944030862e+01
8.979469683043478767e+01
8.970285183523672856e+01
8.958941560211873423e+01
8.945997855968620627e+01
8.932009942043573858e+01
8.917497663620193293e+01
8.902915562833695162e+01
8.888628958428537885e+01
8.874896642401796498e+01
8.861861267410684206e+01
8.849547631526651514e+01
8.837868742260066313e+01
8.826639013772314968e+01
8.815593535665276193e+01
8.804411938400191673e+01
8.792745067347823351e+01
8.780242734735175247e+01
8.766580614082619149e+01
8.751484535105073803e+01
8.734750754210440959e+01
8.716260992369701910e+01
8.695991411263339899e+01
8.674015235628178289e+01
8.650499103076568019e+01
8.625693739102840141e+01
8.599919743345675727e+01
8.573549811663582432e+01
8.546988682918615154e+01
8.520652316207858235e+01
8.494947946983931786e+01
8.470256156419610249e+01
8.446916250309290319e+01
8.425215724982749066e+01
8.405384360819250844e+01
8.387593164124315592e+01
8.371957758809217864e+01
8.358545835857346162e+01
8.347387691151975275e+01
8.338488830767940385e+01
8.331843526689951318e+01
8.327447893000268664e+01
8.325311494996678618e+01
8.325466459221671300e+01
8.327973177229516466e+01
8.332922341449591386e+01
8.340432923237048612e+01
8.350646311466016414e+01
8.363717127994979705e+01
8.379801321939955017e+01
8.399042703595506509e+01
8.421558726408463258e+01
8.447426774631064461e+01
8.476672069065811854e+01
8.509257918064663784e+01
8.545079363161789843e+01
8.583960443500807003e+01
8.625655397666743340e+01
8.669853601179381997e+01
8.716187907773509380e+01
8.764245788289302652e+01
8.813582232742265887e+01
8.863733749985061650e+01
8.914232172762979189e+01
8.964617531491229840e+01
9.014449190713645521e+01
9.063314498147160236e+01
9.110834751893952443e+01
9.156668365833930068e+01
9.200511392166592373e+01
9.242096014644540958e+01
9.281187540291345783e+01
9.317580756341024539e+01
9.351096492043376429e+01
9.381579205340919714e+01
9.408896270876509504e+01
9.432939460757722827e+01
9.453628741962761239e+01
9.470918178599185921e+01
9.484803519198253241e+01
9.495330778593636012e+01
9.502604600150823444e+01
9.506795244763989672e+01
9.508142927884617279e+01
9.506958289072109380e+01
9.503618168957888201e+01
9.498555715664365096e+01
9.492244783843429445e+01
9.485178787468781536e+01
9.477844786414797795e+01
9.470694243903872689e+01
9.464112091321710807e+01
9.458386384127014423e+01
9.453680879925641989e+01
9.450012988150920989e+01
9.447239577113646192e+01
9.445052326144505628e+01
9.442984201241463893e+01
9.440427670287580497e+01
9.436664558150457083e+01
9.430906480463795560e+01
9.422343980462967750e+01
9.410201407493563863e+01
9.393794207041140965e+01
9.372584707480997679e+01
9.346232307669373540e+01
9.314633872940463277e+01
9.277950842516347052e+01
9.236620029929331110e+01
9.191346257111079865e+01
9.143076138595999680e+01
9.092953462031317713e+01
9.042258335098986777e+01
8.992333212062698067e+01
8.944500398725878654e+01
8.899976389922615283e+01
8.859788913864764481e+01
8.824702661755286215e+01
8.795159453820666329e+01
8.771237905392257517e+01
8.752636275039454006e+01
8.738680917157405759e+01
8.728360744894432344e+01
8.720386469435679544e+01
8.713271345807663693e+01
8.705428485268087968e+01
8.695278397457767028e+01
8.681359236560879822e+01
8.662431950150602233e+01
8.637572379955467738e+01
8.606243230410103706e+01
8.568339859221865140e+01
8.524205697595893128e+01
8.474615092431206165e+01
8.420723893243751945e+01
8.363990467947310492e+01
8.306072133770960875e+01
8.248703986986173220e+01
8.193568829176665247e+01
8.142167655266662507e+01
8.095700663045944623e+01
8.054967993562819117e+01
8.020298364078003317e+01
7.991511855589067181e+01
7.967920554680365797e+01
7.948368089354212884e+01
7.931305924270952801e+01
7.914901482659576004e+01
7.897170388591025869e+01
7.876123145079421306e+01
7.849915069647512667e+01
7.816987552605280598e+01
7.776189260974456374e+01
7.726867006576426888e+01
7.668918165222440564e+01
7.602799305490088955e+01
7.529489258572651522e+01
7.450408146127728060e+01
7.367297893104283446e+01
7.282072877116675613e+01
7.196652240162947578e+01
7.112787314784226567e+01
7.031898565190843442e+01
6.954936245434772957e+01
6.882277597784201362e+01
6.813671051031433024e+01
6.748234243109369856e+01
6.684508713064504093e+01
6.620569509454902857e+01
6.554183199066498844e+01
6.483003464972755125e+01
6.404789820835502212e+01
6.317632072991098369e+01
6.220161735855924690e+01
6.111731698788454281e+01
5.992546689833083917e+01
5.863730094025771677e+01
5.727316792138455526e+01
5.586167034578345891e+01
5.443802344056091158e+01
5.304170582947157442e+01
5.171353215245344614e+01
5.049233157884743406e+01
4.941146070078032437e+01
4.849540172365113477e+01
4.775670980613357131e+01
4.719356316135315410e+01
4.678813778945882262e+01
4.650598542515094636e+01
4.629652874616274971e+01
4.609471714107621665e+01
4.582380298050399858e+01
4.539912222630813687e+01
4.473268687977986247e+01
4.373833378281762663e+01
4.233712725579955105e+01
4.046268472555635043e+01
3.806609141303813004e+01
3.512008936819406557e+01
3.162226701723223954e+01
2.759703943051950148e+01
2.309628687247004564e+01
1.819861013428097607e+01
1.300725429358748642e+01
7.646842583562346363e+00
2.259145222891462801e+00
-3.001829478463345247e+00
-7.975089532552162019e+00
-1.249790907763730630e+01
-1.641073214443564510e+01
-1.956142716558021277e+01
-2.180864874012448595e+01
-2.302414552774773426e+01
-2.309395153816296542e+01
-2.191849918174055745e+01
-1.941179650601024420e+01
-1.549990458336138488e+01
-1.011902441709114164e+01
-3.213555686884757012e+00
5.265493817651504926e+00
1.536137849370702391e+01
2.711144585127203044e+01
4.054568652527109407e+01
5.568386950415645487e+01
7.253125805688645755e+01
9.107303949073380522e+01
1.112677443891439708e+02
1.330400624110033334e+02
1.562735718713860535e+02
1.808039840613238596e+02
2.064135431434078782e+02
2.328272216364561871e+02
2.597113012787135062e+02
2.866748330412290215e+02
3.132743285407951248e+02
3.390218591076043140e+02
3.633965352466325385e+02
3.858591195029304117e+02
4.058693097166700454e+02
4.229050235647549130e+02
4.364828406033368537e+02
4.461786230436403002e+02
4.516472538766190610e+02
4.526404109341794992e+02
4.490213384986499818e+02
4.407756834503599634e+02
4.280176327717400682e+02
4.109908103017228882e+02
3.900636501755089967e+02
3.657192544154158895e+02
3.385400374165419066e+02
3.091877501169882976e+02
2.783797391384778734e+02
2.468625161332492155e+02
2.153838778832389096e+02
1.846649137157493783e+02
1.553732569577297795e+02
1.280988875380402305e+02
1.033336602275215910e+02
8.145554167067317053e+01
6.271828626463151579e+01
4.724698735135156369e+01
3.503962590155165913e+01
2.597441557821960600e+01
1.982243580766748181e+01
1.626476863095642855e+01
1.491312577988000498e+01
1.533278668437923464e+01
1.706657073301712302e+01
1.965854780008153568e+01
2.267624340547756390e+01
2.573021769192646246e+01
2.849008842734330571e+01
3.069629898266681067e+01
3.216720611990218259e+01
3.280134600156857516e+01
3.257502230667466847e+01
3.153562815223124716e+01
2.979134394577242162e+01
2.749803810522954350e+01
2.484432572708065479e+01
2.203579920533957548e+01
1.927944751928952627e+01
1.676921242119930255e+01
1.467350932645499206e+01
1.312537236500282312e+01
1.221568079991077127e+01
1.198970298501558496e+01
1.244696625359194364e+01
1.354424654534153305e+01
1.520127916896498199e+01
1.730863390582533512e+01
1.973708948657173323e+01
2.234777489859202149e+01
2.500233830436224380e+01
2.757244178209401042e+01
2.994796651701797785e+01
3.204343349175528033e+01
3.380229468303586771e+01
3.519891796606838597e+01
3.623825591648083133e+01
3.695335036220711800e+01
3.740097138330796156e+01
3.765580085758864470e+01
3.780365437166695131e+01
3.793427791177083463e+01
3.813425656327085989e+01
3.848053949123656281e+01
3.903501555808134071e+01
3.984047712608898451e+01
4.091819568404302743e+01
4.226720266829653383e+01
4.386524629027249489e+01
4.567127291316963067e+01
4.762918136875344999e+01
4.967251716999404465e+01
5.172972211564630385e+01
5.372953347929527013e+01
5.560613273206845264e+01
5.730368323650797890e+01
5.877995563181284666e+01
6.000881831312825909e+01
6.098146465358401969e+01
6.170634475571847588e+01
6.220786522829016008e+01
6.252400513681170224e+01
6.270306943859203130e+01
6.279985222792444688e+01
6.287151200319332389e+01
6.297346886109038167e+01
6.315561734225659052e+01
6.345910968780508910e+01
6.391391401938037831e+01
6.453728397008438833e+01
6.533320464465620603e+01
6.629280663149795316e+01
6.739566722222556905e+01
6.861186134073275866e+01
6.990457434634726042e+01
7.123305924131277322e+01
7.255570647763975956e+01
7.383299636017395073e+01
7.503012818778624649e+01
7.611915133388427535e+01
7.708047077608291886e+01
7.790365313266839564e+01
7.858751205050423039e+01
7.913950924287802025e+01
7.957455421852185395e+01
7.991332661611826893e+01
8.018027582558968902e+01
8.040146375857327143e+01
8.060242510525119997e+01
8.080620564953350993e+01
8.103171714088813360e+01
8.129251900688926469e+01
8.159609489422230411e+01
8.194365493416172797e+01
8.233045057085867313e+01
8.274655247964186344e+01
8.317800721333379954e+01
8.360826396763890500e+01
8.401974926066401395e+01
8.439545775493488122e+01
8.472043766415353616e+01
8.498305706926289815e+01
8.517596320811028932e+01
8.529667129061016340e+01
8.534775170353009344e+01
8.533661528352622838e+01
8.527492735619465236e+01
8.517770613292428550e+01
8.506218422774237808e+01
8.494652505091296746e+01
8.484849490217018797e+01
8.478418785273021285e+01
8.476689589597327767e+01
8.480619997060946957e+01
8.490734075661593749e+01
8.507090404172926412e+01
8.529283328687166943e+01
8.556475519786440032e+01
8.587458683445581187e+01
8.620737027657021656e+01
8.654627195098761661e+01
8.687367137642117143e+01
8.717226214460659151e+01
8.742609364141316064e+01
8.762148703212234579e+01
8.774777132751775355e+01
8.779780201937605000e+01
8.776823974471849965e+01
8.765958450289676307e+01
8.747597754487274813e+01
8.722479775440105243e+01
8.691609198866449049e+01
8.656188360711649921e+01
8.617541387160846966e+01
8.577036713462717898e+01
8.536012988712811023e+01
8.495712733872687750e+01
8.457227258085345056e+01
8.421455280378931718e+01
8.389076782780578867e+01
8.360542349027672060e+01
8.336077184568308951e+01
8.315698235106633263e+01
8.299242127554717285e+01
8.286401041510929133e+01
8.276763558872261228e+01
8.269857432134888597e+01
8.265191308127882053e+01
8.262293059001939355e+01
8.260742533535912457e+01
8.260197494953345654e+01
8.260411774242537319e+01
8.261245410062855399e+01
8.262666999916437760e+01
8.264749102170051742e+01
8.267657590562500047e+01
8.271636332132442249e+01
8.276988575348428867e+01
8.284056320719963651e+01
8.293199130315095147e+01
8.304773391138863303e+01
8.319113065752104319e+01
8.336512733618239679e+01
8.357213283309810947e+01
8.381390754371646779e+01
8.409148422654899946e+01
8.440512230712506891e+01
8.475429437466415550e+01
8.513770355521455713e+01
8.555332953740187918e+01
8.599850172107653634e+01
8.646999624970459308e+01
8.696415415575674501e+01
8.747701659974862309e+01
8.800447346543917604e+01
8.854242071614487486e+01
8.908692010118255666e+01
8.963435497492606885e+01
9.018157574484466465e+01
9.072602661232970434e+01
9.126584733436159524e+01
9.179994227028215903e+01
9.232801127132147201e+01
9.285053727016597236e+01
9.336872903098058885e+01
9.388441908314776185e+01
9.439991968166117431e+01
9.491784271357735747e+01
9.544089196610447345e+01
9.597163924086699183e+01
9.651229710594799371e+01
9.706450294217458463e+01
9.762912929312059873e+01
9.820613377912296471e+01
9.879446129131956411e+01
9.939200891510739666e+01
9.999565885506970631e+01
1.006013829887979085e+02
1.012044150432987237e+02
1.017994838172273404e+02
1.023810966905095086e+02
1.029438571986450341e+02
1.034827974069036145e+02
1.039937053989013265e+02
1.044734250029568585e+02
1.049201078937659872e+02
1.053333988199209728e+02
1.057145383358801496e+02
1.060663708224655579e+02
1.063932541144387045e+02
1.067008703308037951e+02
1.069959444187321083e+02
1.072858835204374799e+02
1.075783548363427968e+02
1.078808257447172139e+02
1.082000922711019228e+02
1.085418223574352226e+02
1.089101422308010427e+02
1.093072919340120990e+02
1.097333727628627003e+02
1.101862032138380414e+02
1.106612958001485651e+02
1.111519595386503454e+02
1.116495233220221337e+02
1.121436724989017932e+02
1.126228798269839046e+02
1.130749091999437894e+02
1.134873630910056477e+02
1.138482444442328614e+02
1.141465009936849100e+02
1.143725209695837890e+02
1.145185524474308068e+02
1.145790222711859059e+02
1.145507366594287078e+02
1.144329525150904914e+02
1.142273159463383365e+02
1.139376734510014302e+02
1.135697672037293273e+02
1.131308346110260317e+02
1.126291356013733633e+02
1.120734377489274038e+02
1.114724910411741519e+02
1.108345227228624452e+02
1.101667842073720038e+02
1.094751760407229995e+02
1.087639738837596894e+02
1.080356701431396971e+02
1.072909406016918439e+02
1.065287357881755383e+02
1.057464892489534805e+02
1.049404302520043331e+02
1.041059782442197985e+02
1.032381933398926037e+02
1.023322540297458545e+02
1.013839306200716948e+02
1.003900245882463338e+02
9.934874541618778210e+01
9.826000027178051255e+01
9.712557864482887737e+01
9.594921949408534090e+01
9.473655638119916489e+01
9.349494416377490325e+01
9.223317661342379381e+01
9.096111311930032173e+01
8.968923557434159477e+01
8.842816482931820588e+01
8.718816450570140830e+01
8.597866212472460745e+01
8.480781738196313313e+01
8.368216244792675695e+01
8.260633588612863321e+01
8.158292554379197270e+01
8.061242968790263319e+01
7.969333660495750848e+01
7.882231842276799227e+01
7.799452621240644135e+01
7.720396804980431682e+01
7.644394675292510044e+01
7.570753053615241868e+01
7.498802925306486600e+01
7.427944813771388510e+01
7.357689214487906781e+01
7.287689833847176146e+01
7.217767796243468581e+01
7.147925455829167163e+01
7.078349382675941115e+01
7.009402311260195972e+01
6.941604828454944709e+01
6.875608005798819988e+01
6.812158668638308257e+01
6.752059495414796686e+01
6.696126243555330859e+01
6.645144488001683669e+01
6.599828501517188784e+01
6.560784276012955729e+01
6.528478786761313302e+01
6.503216881413869999e+01
6.485126830698573031e+01
6.474155109339588421e+01
6.470070322019479647e+01
6.472475823077785151e+01
6.480829980426325676e+01
6.494472726187083822e+01
6.512656842666011414e+01
6.534582071585772667e+01
6.559430349168763996e+01
6.586400237082033016e+01
6.614738907814978575e+01
6.643770412586808050e+01
6.672918837557392635e+01
6.701725886050327574e+01
6.729862150741739413e+01
6.757132150538673443e+01
6.783473290340043604e+01
6.808949149593422590e+01
6.833737961575410225e+01
6.858116997895061218e+01
6.882443833975740688e+01
6.907135557540034654e+01
6.932646732055658845e+01
6.959447125751984231e+01
6.987999964000104569e+01
7.018741353542931449e+01
7.052061456104583215e+01
7.088287761062825609e+01
7.127670926019668229e+01
7.170373258005774630e+01
7.216460108454687372e+01
7.265894265114336292e+01
7.318533254215614647e+01
7.374129791808354639e+01
7.432335341139580009e+01
7.492706727142444834e+01
7.554715731069774165e+01
7.617761548887428091e+01
7.681186093693246164e+01
7.744291584496636460e+01
7.806360225451427937e+01
7.866675471765785232e+01
7.924544109456462593e+01
7.979318619170844329e+01
8.030418896736760814e+01
8.077352466748180859e+01
8.119732355243621669e+01
8.157291733729178418e+01
8.189894621939464514e+01
8.217542056685198304e+01
8.240373135633376478e+01
8.258660932411277145e+01
8.272803125880571429e+01
8.283307826573800980e+01
8.290775001778712294e+01
8.295874387667552696e+01
8.299320839308036568e+01
8.301848199227892167e+01
8.304183054503626238e+01
8.307019445342658059e+01
8.310995757413934371e+01
8.316674798761090415e+01
8.324527930600343950e+01
8.334923828080283670e+01
8.348122056366942445e+01
8.364271700541017651e+01
8.383414517822323830e+01
8.405492199008925525e+01
8.430357098264016713e+01
8.457785356398302667e+01
8.487491545905513135e+01
8.519143714047527283e+01
8.552378111438943620e+01
8.586812601519714860e+01
8.622058264518581439e+01
8.657728658989931603e+01
8.693446707935662232e+01
8.728849244729484269e+01
8.763589534443968887e+01
8.797338216697878011e+01
8.829783210652560399e+01
8.860629359117282888e+01
8.889598347681055657e+01
8.916429495575461317e+01
8.940881851214338383e+01
8.962737797499453052e+01
8.981808182837716004e+01
8.997938756789929471e+01
9.011017548803826571e+01
9.020982531998480169e+01
9.027828795885021407e+01
9.031614523495282754e+01
9.032464862709581155e+01
9.030573043272291045e+01
9.026198191900915901e+01
9.019659455981798146e+01
9.011326417856646742e+01
9.001605957915620593e+01
8.990926235728932170e+01
8.979718434286999695e+01
8.968397359808025726e+01
8.957342163035271199e+01
8.946878314750946970e+01
8.937262299646941699e+01
8.928669944648650869e+01
8.921189565986566095e+01
8.914820285236437769e+01
8.909476161523387816e+01
8.904995768109340304e+01
8.901156845144409147e+01
8.897695130826822663e+01
8.894326146455658488e+01
8.890768421760058970e+01
8.886766650469819240e+01
8.882112917763200244e+01
8.876664593593778818e+01
8.870357292118504233e+01
8.863212026990288450e+01
8.855335646856427445e+01
8.846914531836577567e+01
8.838201584419915946e+01
8.829497429208639403e+01
8.821126925065547653e+01
8.813412726143972975e+01
8.806647548232892575e+01
8.801067329308187936e+01
8.796827249070919663e+01
8.793982512538744345e+01
8.792475504278918663e+01
8.792130665213529994e+01
8.792657695660332706e+01
8.793663283127555985e+01
8.794671030067098627e+01
8.795148522165260374e+01
8.794539988140093101e+01
8.792302532770459322e+01
8.787943814596712855e+01
8.781058490618680423e+01
8.771361085671856017e+01
8.758712880872604956e+01
8.743140878039254460e+01
8.724847203443125920e+01
8.704208015282544864e+01
8.681761631098584076e+01
8.658186126604518051e+01
8.634267579284700389e+01
8.610860517804205472e+01
8.588842774199061125e+01
8.569067521646468322e+01
8.552315153957650296e+01
8.539248029532532769e+01
8.530370884633646256e+01
8.525999363182620527e+01
8.526238804639942259e+01
8.530974644005543439e+01
8.539875226260426189e+01
8.552407014204918312e+01
8.567861505305775438e+01
8.585392325573626238e+01
8.604060476446601058e+01
8.622885038531229895e+01
8.640896400263814314e+01
8.657188920732616566e+01
8.670969851398812978e+01
8.681601763757308277e+01
8.688635839896355151e+01
8.691834006852921846e+01
8.691178844991661379e+01
8.686870511289234287e+01
8.679311060811772904e+01
8.669077043940200156e+01
8.656882123925623773e+01
8.643531965209541568e+01
8.629874268895302691e+01
8.616746822848300269e+01
8.604926859673842898e+01
8.595084633610842673e+01
8.587744047076584764e+01
8.583252735258407995e+01
8.581763145059845499e+01
8.583225887158104683e+01
8.587395497465470839e+01
8.593848199056201054e+01
8.602010544397786873e+01
8.611196924079526127e+01
8.620653744480117098e+01
8.629607350038664038e+01
8.637312799084064352e+01
8.643100452901522601e+01
8.646417508096696736e+01
8.646861971430783456e+01
8.644206956164155997e+01
8.638413945578058417e+01
8.629634258772985334e+01
8.618198718648886825e+01
8.604596239195061003e+01
8.589442698238650564e+01
8.573442174590928744e+01
8.557343066594467018e+01
8.541891752354308665e+01
8.527786871456662254e+01
8.515636926698167031e+01
8.505924060211226845e+01
8.498976190137807407e+01
8.494949273037380522e+01
8.493820770376873952e+01
8.495394738597036621e+01
8.499318162696231127e+01
8.505107612856119204e+01
8.512184351064351517e+01
8.519915756431541354e+01
8.527660318132399198e+01
8.534813464995643528e+01
8.540851049350573021e+01
8.545367801184855239e+01
8.548108160474315298e+01
8.548987380567005800e+01
8.548101507590195069e+01
8.545725377064901807e+01
8.542298564594399579e+01
8.538400113050438733e+01
8.534713343892632054e+01
8.531982929225968348e+01
8.530966815997500419e+01
8.532385951851084371e+01
8.536874927912936073e+01
8.544936623034641343e+01
8.556903931776933803e+01
8.572910936913052637e+01
8.592875681082236383e+01
8.616495693959599578e+01
8.643256869799989772e+01
8.672455391591580565e+01
8.703231634118944271e+01
8.734614169044164100e+01
8.765571349508294929e+01
8.795067479737754468e+01
8.822120248001452580e+01
8.845855984462056654e+01
8.865559429210689757e+01
8.880714747551681398e+01
8.891035405833892469e+01
8.896480849161045512e+01
8.897258969712574128e+01
8.893813993837461851e+01
8.886800440190692996e+01
8.877044592256780220e+01
8.865495727510038648e+01
8.853170060574801425e+01
8.841090763332967128e+01
8.830227677494262650e+01
8.821440387154474649e+01
8.815428207204020339e+01
8.812690220567570520e+01
8.813497706291553868e+01
8.817880762074594259e+01
8.825629968193288732e+01
8.836312959137417522e+01
8.849304811601244580e+01
8.863830417741431233e+01
8.879016032967490446e+01
8.893946806121712712e+01
8.907726479367443062e+01
8.919535581280641168e+01
8.928684304196484334e+01
8.934656617513218180e+01
8.937142848542839602e+01
8.936058479519817865e+01
8.931548251768425928e+01
8.923974967539690795e+01
8.913893998232747151e+01
8.902015083515453853e+01
8.889153890244158163e+01
8.876176708715047425e+01
8.863941820779228919e+01
8.853241478616342874e+01
8.844748307647095942e+01
8.838969762737529834e+01
8.836213728636316489e+01
8.836567418849224964e+01
8.839891127517873315e+01
8.845827142571167201e+01
8.853823396354943043e+01
8.863170201139259063e+01
8.873047614840440644e+01
8.882580272969792645e+01
8.890896046721046275e+01
8.897184608042554999e+01
8.900752012397829560e+01
8.901067565316749608e+01
8.897799931856856404e+01
8.890840053279401900e+01
8.880309297501919730e+01
8.866552454930985050e+01
8.850115931840275607e+01
8.831712704842223616e+01
8.812176424977781153e+01
8.792407644319803239e+01
8.773315938223615262e+01
8.755761647587517871e+01
8.740501156012506101e+01
8.728139247630758746e+01
8.719091654850346629e+01
8.713560261104770177e+01
8.711522246704859640e+01
8.712733953954949584e+01
8.716748849232932628e+01
8.722948199603725072e+01
8.730582368163130980e+01
8.738819613424041677e+01
8.746799142575069652e+01
8.753684744837971721e+01
8.758715365620861348e+01
8.761249569234583134e+01
8.760800720312838052e+01
8.757061088548252314e+01
8.749913376258756159e+01
8.739429397987629500e+01
8.725856551210023326e+01
8.709593194284127549e+01
8.691155296573889188e+01
8.671136914248070582e+01
8.650167635946208122e+01
8.628870195901254192e+01
8.607821343106353140e+01
8.587518689796398519e+01
8.568355810405634543e+01
8.550607097567170456e+01
8.534423282385670007e+01
8.519837364650477696e+01
8.506780253755010790e+01
8.495104343226920207e+01
8.484612860853523841e+01
8.475092513974519193e+01
8.466346356423260033e+01
8.458224126995183667e+01
8.450647403804882174e+01
8.443627423824098344e+01
8.437273997269721804e+01
8.431794494648337945e+01
8.427482999230173277e+01
8.424700140822702110e+01
8.423845129265191645e+01
8.425322175517167977e+01
8.429503647955989720e+01
8.436692981552394599e+01
8.447090120031577953e+01
8.460762411918386761e+01
8.477623320449998801e+01
8.497420894770314703e+01
8.519737163122097456e+01
8.543999006405070418e+01
8.569500010638191156e+01
8.595432292299530275e+01
8.620926282075284064e+01
8.645096133368183189e+01
8.667087765265634403e+01
8.686126429187027043e+01
8.701560848963106309e+01
8.712900781218182544e+01
8.719845683450557772e+01
8.722302481566612187e+01
8.720391286293113353e+01
8.714438660891883615e+01
8.704958783011409196e+01
8.692623871890171472e+01
8.678225532146089449e+01
8.662629770899845028e+01
8.646728471845499087e+01
8.631390286221230213e+01
8.617414230788982366e+01
8.605488647814924263e+01
8.596158256663176189e+01
8.589800898400206108e+01
8.586615440816431999e+01
8.586621119482553866e+01
8.589668151887694592e+01
8.595458507752996979e+01
8.603575173946812527e+01
8.613517557379306311e+01
8.624740579312390309e+01
8.636694592333216747e+01
8.648863325502837540e+01
8.660797324772589434e+01
8.672140718351191424e+01
8.682649531424135603e+01
8.692200502627132153e+01
8.700790045161532760e+01
8.708523789113836244e+01
8.715597535828666764e+01
8.722271372029200620e+01
8.728838882532241428e+01
8.735593959351473359e+01
8.742797765536028010e+01
8.750648288669640351e+01
8.759254952703443564e+01
8.768620166759451706e+01
8.778629374585607081e+01
8.789050547533756230e+01
8.799543199323441911e+01
8.809676631859392160e+01
8.818956261602097868e+01
8.826856362847154003e+01
8.832857126784175250e+01
8.836483526151110368e+01
8.837343425003531650e+01
8.835162108689515037e+01
8.829811028904801162e+01
8.821328345248620906e+01
8.809929876525833947e+01
8.796009159164772484e+01
8.780126271662770421e+01
8.762985690459511545e+01
8.745404242703394004e+01
8.728270514994331108e+01
8.712498122715327042e+01
8.698975179595883844e+01
8.688513092908792146e+01
8.681797410206486632e+01
8.679343822012288001e+01
8.681461875598486699e+01
8.688228757155987125e+01
8.699474938336459218e+01
8.714782852699097759e+01
8.733498928785952842e+01
8.754758826566943242e+01
8.777524666853575752e+01
8.800632695711705367e+01
8.822848949442847299e+01
8.842930180971080745e+01
8.859686906253085681e+01
8.872045216941178580e+01
8.879104150492747749e+01
8.880185494547286851e+01
8.874873219654996603e+01
8.863040392733680051e+01
8.844861920969489688e+01
8.820812261442034696e+01
8.791647991387715422e+01
8.758375986413139458e+01
8.722208606504010220e+01
8.684508022134164662e+01
8.646722499421947816e+01
8.610317909185680207e+01
8.576707711304321435e+01
8.547185202714101138e+01
8.522861345934143174e+01
8.504611520049716944e+01
8.493034023248657149e+01
8.488422281742577979e+01
8.490752483417061569e+01
8.499687160971217281e+01
8.514594597033840273e+01
8.534583095966061705e+01
8.558548319884518207e+01
8.585231161370062125e+01
8.613283166584591299e+01
8.641336148029772346e+01
8.668072113042352100e+01
8.692290016891068660e+01
8.712965688152490884e+01
8.729301797508388461e+01
8.740765279399646204e+01
8.747110234604902246e+01
8.748385188205745067e+01
8.744924256059663037e+01
8.737322919563521850e+01
8.726399817114129576e+01
8.713146552600476014e+01
8.698668514861756762e+01
8.684119831756243002e+01
8.670636139822289579e+01
8.659268810797513538e+01
8.650924375631993257e+01
8.646312237866906969e+01
8.645903690142785081e+01
8.649904198362310126e+01
8.658240593585860267e+01
8.670563686199788833e+01
8.686265903197583782e+01
8.704513039737805968e+01
8.724288046023364984e+01
8.744444485389281851e+01
8.763766516884047064e+01
8.781032073670176885e+01
8.795075811014109490e+01
8.804848211901615684e+01
8.809467878753211778e+01
8.808264278128129376e+01
8.800808785164036863e+01
8.786932633613042753e+01
8.766731122069184323e+01
8.740554298861135862e+01
8.708985099468286251e+01
8.672806448283813552e+01
8.632959694572681997e+01
8.590496939567461254e+01
8.546530298961732797e+01
8.502181059355984871e+01
8.458531598658018424e+01
8.416582768013950044e+01
8.377218895655836661e+01
8.341182120749343198e+01
8.309057008779109310e+01
8.281265779532067484e+01
8.258073728958511595e+01
8.239603876053482168e+01
8.225859246151676984e+01
8.216750789406536626e+01
8.212128542111857143e+01
8.211813711475879529e+01
8.215629071048400078e+01
8.223425667623119750e+01
8.235103696424623365e+01
8.250626351125751512e+01
8.270025535332089817e+01
8.293399225296641930e+01
8.320900742337315137e+01
8.352720787749709075e+01
8.389063620364483143e+01
8.430119083877539765e+01
8.476032503008244134e+01
8.526874740113009921e+01
8.582614503744696322e+01
8.643094934793323603e+01
8.708016253256977279e+01
8.776925797393448647e+01
8.849216425241581874e+01
8.924133572884522891e+01
9.000790910533656586e+01
9.078193789800893398e+01
9.155269452775092986e+01
9.230902451949592091e+01
9.303973506521036541e+01
9.373399642510243268e+01
9.438173757180338441e+01
9.497401478067479275e+01
9.550333556426129178e+01
9.596392241761810737e+01
9.635190364516638795e+01
9.666542239856413232e+01
9.690466147930588647e+01
9.707178224533286937e+01
9.717078268669914110e+01
9.720728147258998320e+01
9.718823906175173022e+01
9.712162755209831744e+01
9.701606588610127346e+01
9.688043458489003967e+01
9.672348656849320037e+01
9.655346895527431172e+01
9.637777107441431212e+01
9.620261275212719454e+01
9.603278412184995716e+01
9.587144732757731447e+01
9.572000858942782031e+01
9.557806697601621693e+01
9.544344250061935497e+01
9.531228596529628305e+01
9.517926935006967426e+01
9.503785138695583612e+01
9.488061220376889082e+01
9.469964699744838299e+01
9.448700613408756510e+01
9.423516452083025285e+01
9.393750248288195337e+01
9.358877555286922245e+01
9.318555133347351216e+01
9.272659006776865454e+01
9.221314306643350278e+01
9.164914974197060360e+01
9.104131084880431501e+01
9.039902503586489502e+01
8.973417933476419250e+01
8.906078893595179125e+01
8.839449430038199296e+01
8.775192863712182145e+01
8.714997922621978432e+01
8.660497395729787229e+01
8.613183094341854940e+01
8.574321711447781524e+01
8.544876284733931016e+01
8.525438250454988065e+01
8.516174742274226617e+01
8.516795338596635645e+01
8.526541549860337454e+01
8.544201363154328988e+01
8.568149646486122606e+01
8.596413727436825525e+01
8.626762002917362793e+01
8.656811577747455999e+01
8.684149678975025211e+01
8.706462404566624969e+01
8.721663367330567951e+01
8.728014311690370164e+01
8.724230040908513217e+01
8.709560295421991327e+01
8.683842495527146355e+01
8.647520714349138871e+01
8.601628199577123723e+01
8.547732912793121329e+01
8.487848126451586950e+01
8.424312498555855200e+01
8.359646078310055373e+01
8.296390647702861543e+01
8.236944477212021809e+01
8.183401935767081170e+01
8.137408887566844840e+01
8.100044023647795655e+01
8.071734803966977267e+01
8.052214932352679000e+01
8.040527431377357459e+01
8.035074533119266960e+01
8.033712453942304421e+01
8.033885675556084038e+01
8.032792759528186366e+01
8.027572937463035885e+01
8.015501119495836235e+01
7.994177732213347554e+01
7.961699829532270201e+01
7.916800899028730498e+01
7.858948443407625462e+01
7.788391316128961250e+01
7.706151925109088552e+01
7.613962539283340902e+01
7.514148757103203025e+01
7.409467313722019810e+01
7.302908957373580279e+01
7.197480114001866980e+01
7.095978913891417506e+01
7.000782320655243041e+01
6.913660536487653019e+01
6.835633691700391523e+01
6.766882901257588401e+01
6.706724083385414303e+01
6.653648671999387432e+01
6.605430126900246535e+01
6.559290455704700662e+01
6.512115696694722544e+01
6.460705473590766701e+01
6.402038337522927236e+01
6.333532709941788141e+01
6.253282716684515208e+01
6.160249220596736563e+01
6.054388752374542548e+01
5.936707266032310315e+01
5.809230463921652898e+01
5.674888740335857307e+01
5.537320804631145421e+01
5.400606621408689278e+01
5.268945997488933841e+01
5.146304079665045350e+01
5.036048533532193971e+01
4.940605034354665293e+01
4.861157614837260610e+01
4.797418492294502812e+01
4.747488064695830445e+01
4.707820591059193305e+01
4.673304052994873814e+01
4.637454983098753303e+01
4.592721511992501604e+01
4.530879727613031349e+01
4.443501946063123853e+01
4.322469655012952927e+01
4.160500322104553561e+01
3.951655522431535417e+01
3.691798360549233138e+01
3.378971296039892991e+01
3.013670082131640982e+01
2.598996678420716222e+01
2.140681815825307766e+01
1.646976812333237206e+01
1.128423158856551822e+01
5.975165913672982221e+00
6.828957309773815432e-01
-4.441587775021534235e+00
-9.241530910631732709e+00
-1.355919921474153433e+01
-1.724023100648742712e+01
-2.013730412215998555e+01
-2.211292297744971336e+01
-2.304122107656607454e+01
-2.280876463762747619e+01
-2.131444340349337097e+01
-1.846862654629866185e+01
-1.419184039666275865e+01
-8.413283217565179939e+00
-1.069524221612246917e+00
7.896263471744441986e+00
1.853421578155980143e+01
3.088658072192302484e+01
4.498524298706716706e+01
6.084791860975776245e+01
7.847309273828687992e+01
9.783391112073513796e+01
1.188713645683878610e+02
1.414872208071402042e+02
1.655372499577674432e+02
1.908253459509001857e+02
2.170991629927909230e+02
2.440478586544837754e+02
2.713024614527917606e+02
2.984392642387517185e+02
3.249864874970090796e+02
3.504342719328844282e+02
3.742478532427307982e+02
3.958835582747452122e+02
4.148070607490886914e+02
4.305131451678511780e+02
4.425460819551549889e+02
4.505196084883486947e+02
4.541354669361143124e+02
4.531994576945626250e+02
4.476340442102408019e+02
4.374866795809058431e+02
4.229332192988117072e+02
4.042760176553775295e+02
3.819365783409045889e+02
3.564429124657874581e+02
3.284120481603167718e+02
2.985284049959585673e+02
2.675189823012090642e+02
2.361265023660582756e+02
2.050817742271261181e+02
1.750766035542915233e+02
1.467385612190761890e+02
1.206088307618118165e+02
9.712420017977764530e+01
7.660404344096203033e+01
5.924287058784074844e+01
4.510872646295348432e+01
3.414740443756009824e+01
2.619213361540082374e+01
2.097810757595442865e+01
1.816097553130023456e+01
1.733822214069896717e+01
1.807222947975421334e+01
1.991375732875447113e+01
2.242458980985096417e+01
2.519818508997094852e+01
2.787731310892359815e+01
3.016787562352579499e+01
3.184834948707655755e+01
3.277456630870698717e+01
3.287982185891860354e+01
3.217058339782104781e+01
3.071830478756655936e+01
2.864806925243785685e+01
2.612492996781403320e+01
2.333891532651420064e+01
2.048969769134503949e+01
1.777189019485013688e+01
1.536184712506102201e+01
1.340670157664446371e+01
1.201619122880667767e+01
1.125761511848772933e+01
1.115404485294920889e+01
1.168569481182167991e+01
1.279415246585878840e+01
1.438900289488382711e+01
1.635624318338264160e+01
1.856780039098393686e+01
2.089142906004726186e+01
2.320027825806929656e+01
2.538148085052483083e+01
2.734321958229077154e+01
2.901985995426187159e+01
3.037489613547326783e+01
3.140162238143655671e+01
3.212160792277882848e+01
3.258120212208842759e+01
3.284642649841609341e+01
3.299670666628467330e+01
3.311795730673091498e+01
3.329555284966400563e+01
3.360770257976304265e+01
3.411969072342439802e+01
3.487936239826987617e+01
3.591412442774424818e+01
3.722961045984453676e+01
3.881003240501621576e+01
4.062011536131519307e+01
4.260840464724415000e+01
4.471164069037524769e+01
4.685983556679317275e+01
4.898164728101895093e+01
5.100964460712968673e+01
5.288508139885436066e+01
5.456184944445991647e+01
5.600935271773156643e+01
5.721413719504347029e+01
5.818020606334707878e+01
5.892805097062245068e+01
5.949252055114717308e+01
5.991972792583462137e+01
6.026326200491524787e+01
6.058000486438118060e+01
6.092587708789877610e+01
6.135182151894424152e+01
6.190030797604408974e+01
6.260259138955368030e+01
6.347689022158712646e+01
6.452757910924930229e+01
6.574541111860976628e+01
6.710870912232098817e+01
6.858539838336037064e+01
7.013569547271593763e+01
7.171522948481589310e+01
7.327834972084345111e+01
7.478137086549661205e+01
7.618552215904362868e+01
7.745939874297945948e+01
7.858076184016620402e+01
7.953758374356209515e+01
8.032830054566416322e+01
8.096128883723731917e+01
8.145364456147687804e+01
8.182938766684013387e+01
8.211725345619977645e+01
8.234825457633374413e+01
8.255320584606135981e+01
8.276039899504328901e+01
8.299359376992950388e+01
8.327046006348120954e+01
8.360156666096590072e+01
8.398996582691904678e+01
8.443137660048795112e+01
8.491492519801998640e+01
8.542435902684748328e+01
8.593962085015358809e+01
8.643864705734999632e+01
8.689924271493266872e+01
8.730088890041974992e+01
8.762634649267866394e+01
8.786294491773976745e+01
8.800347216472070500e+01
8.804661560138340803e+01
8.799694094086827079e+01
8.786443102394073890e+01
8.766363857982288721e+01
8.741253367863737367e+01
8.713114711957302916e+01
8.684012012919778556e+01
8.655927395180765416e+01
8.630630548978443528e+01
8.609570049464866770e+01
8.593793503033663228e+01
8.583901200886128890e+01
8.580034877108188596e+01
8.581900782054023580e+01
8.588823380260620866e+01
8.599824013733901040e+01
8.613717229155932387e+01
8.629216283250904951e+01
8.645039338649259264e+01
8.660007968542248591e+01
8.673130767939275643e+01
8.683666323167284418e+01
8.691161820998482312e+01
8.695465438414598225e+01
8.696712965451752098e+01
8.695291229780424658e+01
8.691782505954287785e+01
8.686895380201578121e+01
8.681388489079492388e+01
8.675993832145482543e+01
8.671346001114004309e+01
8.667923213537538629e+01
8.666004481155081862e+01
8.665646079147748537e+01
8.666678637683703812e+01
8.668724437646827141e+01
8.671233133749312572e+01
8.673532259707056369e+01
8.674888135054236216e+01
8.674571998659817496e+01
8.671925667387313297e+01
8.666421636531811146e+01
8.657712644445049932e+01
8.645667046733733230e+01
8.630387254600510971e+01
8.612210034391837610e+01
8.591688955508757886e+01
8.569560535579482519e+01
8.546696813992839736e+01
8.524048259135373939e+01
8.502581447756503508e+01
8.483216263706225391e+01
8.466767366020239649e+01
8.453894170002332942e+01
8.445062807201360044e+01
8.440522733174621806e+01
8.440299376931717745e+01
8.444202857412264507e+01
8.451851845150987685e+01
8.462710417912109051e+01
8.476134778628562572e+01
8.491426254916957816e+01
8.507886328710088719e+01
8.524869716413557796e+01
8.541831459584948050e+01
8.558364893025503761e+01
8.574227881708185350e+01
8.589355578737016117e+01
8.603859363516909298e+01
8.618012335900024823e+01
8.632222814918354459e+01
8.646998260470110154e+01
8.662902610273664550e+01
8.680510380890125077e+01
8.700361183109997398e+01
8.722918010823995871e+01
8.748532487721908524e+01
8.777419519566481654e+01
8.809643019263461383e+01
8.845113614381705247e+01
8.883598236613796928e+01
8.924740647152175654e+01
8.968091066608319295e+01
9.013142574502288085e+01
9.059371264895595743e+01
9.106277089958207682e+01
9.153422293001320043e+01
9.200464407958401125e+01
9.247181500218090378e+01
9.293487675941484838e+01
9.339437797089058790e+01
9.385221174302377278e+01
9.431144737519124988e+01
9.477606979651035601e+01
9.525064666595883978e+01
9.573994774525766616e+01
9.624854612182589619e+01
9.678042920146921801e+01
9.733864887655590792e+01
9.792503575232665014e+01
9.853999769077219639e+01
9.918241821623092846e+01
9.984965973775609882e+01
1.005376724582401806e+02
1.012411996767635856e+02
1.019540645255682279e+02
1.026695171539576847e+02
1.033806172088205386e+02
1.040806235898838281e+02
1.047633642006186818e+02
1.054235586654120169e+02
1.060570729654466220e+02
1.066610869496971787e+02
1.072341640488120902e+02
1.077762192071135416e+02
1.082883880194005144e+02
1.087728087145446239e+02
1.092323320024345605e+02
1.096701813355814039e+02
1.100895882466436291e+02
1.104934291492650686e+02
1.108838919337099185e+02
1.112621935899394572e+02
1.116283711277871049e+02
1.119811599632232486e+02
1.123179677072376990e+02
1.126349466109947741e+02
1.129271568628181370e+02
1.131888109757806831e+02
1.134135799429861748e+02
1.135949395744978290e+02
1.137265329016566398e+02
1.138025218641199672e+02
1.138179053893519210e+02
1.137687795319366728e+02
1.136525242022115236e+02
1.134679028859408305e+02
1.132150707201109867e+02
1.128954912165956301e+02
1.125117695171446854e+02
1.120674161971273719e+02
1.115665601394126583e+02
1.110136329504370423e+02
1.104130486778207967e+02
1.097689031858735262e+02
1.090847156464380134e+02
1.083632332912968366e+02
1.076063113602146473e+02
1.068148782411699926e+02
1.059889880610337798e+02
1.051279556819330026e+02
1.042305643798206205e+02
1.032953295688608790e+02
1.023207983294051644e+02
1.013058617157766150e+02
1.002500545469447673e+02
9.915382162950935196e+01
9.801872637613092820e+01
9.684758765852974705e+01
9.564453090734956220e+01
9.441494881491772162e+01
9.316537361648782678e+01
9.190326732724675196e+01
9.063674424121502682e+01
8.937424345352447119e+01
8.812417421266425777e+01
8.689455866308304621e+01
8.569269530525617995e+01
8.452486700720417900e+01
8.339611280287483908e+01
8.231007779377070221e+01
8.126895369700694971e+01
8.027350963887326429e+01
7.932321189908560655e+01
7.841642177361588040e+01
7.755065721025901837e+01
7.672289791341836462e+01
7.592991181027643677e+01
7.516857850435718547e+01
7.443618666287967756e+01
7.373068340831378009e+01
7.305085873478958547e+01
7.239645206727603011e+01
7.176817454797966889e+01
7.116764727064864360e+01
7.059725961794195825e+01
7.005996257576626363e+01
6.955901074188382438e+01
6.909767601009215809e+01
6.867895490420509930e+01
6.830529224419053946e+01
6.797834437345055392e+01
6.769880021905774470e+01
6.746627474563617000e+01
6.727928440411743338e+01
6.713530798180745762e+01
6.703092932699971129e+01
6.696205205971949681e+01
6.692417149841838864e+01
6.691268446600155073e+01
6.692321323613529671e+01
6.695192128806861831e+01
6.699579476605406114e+01
6.705286937654474855e+01
6.712238367076528789e+01
6.720484582779512550e+01
6.730200746114550725e+01
6.741674208929040901e+01
6.755283546653960514e+01
6.771470035104216834e+01
6.790703235760850021e+01
6.813443100171100753e+01
6.840100914000925059e+01
6.871001859559846991e+01
6.906351692314950697e+01
6.946209827337105480e+01
6.990470841122962042e+01
7.038855773910711378e+01
7.090913880391954649e+01
7.146035054781712859e+01
7.203472264060226848e+01
7.262372785038218126e+01
7.321816221648961687e+01
7.380857310451740716e+01
7.438570705345958345e+01
7.494095092615513920e+01
7.546674028928555344e+01
7.595690955665718036e+01
7.640696385927064682e+01
7.681425652255161651e+01
7.717806210697607128e+01
7.749954371312804824e+01
7.778161605098300413e+01
7.802871568159498850e+01
7.824649305903720631e+01
7.844144742151199523e+01
7.862052810382485291e+01
7.879072636660637841e+01
7.895868311396478134e+01
7.913033612791103621e+01
7.931062554197950476e+01
7.950327597773059551e+01
7.971066289454566345e+01
7.993376989200733362e+01
8.017223465227729662e+01
8.042447711337797500e+01
8.068789797349279524e+01
8.095913073252010861e+01
8.123432941265546958e+01
8.150946988979566754e+01
8.178064503964141352e+01
8.204433481047026078e+01
8.229763327171717435e+01
8.253841974711176022e+01
8.276546624075751879e+01
8.297847504273569541e+01
8.317804996472089840e+01
8.336560392768680572e+01
8.354321440566192791e+01
8.371343866529535660e+01
8.387910365922793687e+01
8.404308849994851016e+01
8.420811233109944283e+01
8.437654499692206400e+01
8.455025104283109272e+01
8.473047717294154779e+01
8.491778913920134642e+01
8.511205950217673433e+01
8.531250370786318626e+01
8.551775961110568858e+01
8.572600115841974855e+01
8.593507661318817270e+01
8.614265888380414538e+01
8.634639532775261728e+01
8.654404546980761381e+01
8.673359724296764739e+01
8.691335470249741491e+01
8.708199064694707658e+01
8.723856433302695734e+01
8.738250353426546724e+01
8.751355773300777230e+01
8.763172865402852096e+01
8.773718576132031899e+01
8.783017709573277898e+01
8.791094486255252605e+01
8.797965554334314220e+01
8.803635234552604061e+01
8.808093442196035028e+01
8.811316684051716663e+01
8.813272058801520359e+01
8.813923947247937463e+01
8.813242967174529952e+01
8.811216230384867742e+01
8.807858117929723107e+01
8.803220398055420048e+01
8.797400732238462240e+01
8.790548674295968112e+01
8.782868174743096290e+01
8.774616313975305104e+01
8.766097752116732522e+01
8.757655144896541799e+01
8.749655780268524552e+01
8.742475123031560713e+01
8.736478238973792543e+01
8.732000188180803946e+01
8.729326672727322034e+01
8.728676305917923628e+01
8.730185588935746921e+01
8.733897803883698430e+01
8.739756587423485712e+01
8.747604851801845882e+01
8.757189307922435262e+01
8.768170351373250071e+01
8.780136969195250174e+01
8.792625765058934917e+01
8.805143089687514646e+01
8.817189020545131939e+01
8.828281698201885774e+01
8.837980740719021355e+01
8.845908125414632650e+01
8.851765560366709451e+01
8.855347248824121209e+01
8.856547337087106087e+01
8.855361681003680019e+01
8.851883931604143640e+01
8.846296377780582532e+01
8.838856071408926596e+01
8.829877260189950050e+01
8.819711318954774981e+01
8.808725447913133166e+01
8.797281436299330437e+01
8.785715920653976241e+01
8.774323190324332700e+01
8.763341651644199715e+01
8.752944527332233804e+01
8.743235441424222643e+01
8.734248887435485642e+01
8.725955322207771303e+01
8.718270572631556092e+01
8.711068562809577998e+01
8.704196560134339222e+01
8.697491900298655310e+01
8.690798765242765000e+01
8.683984163878530183e+01
8.676951744136326283e+01
8.669652729600078089e+01
8.662093288343918118e+01
8.654337665719693007e+01
8.646507056156313809e+01
8.638774294542407972e+01
8.631354617845585153e+01
8.624493260434738318e+01
8.618450561712286628e+01
8.613485563878599294e+01
8.609839134142563921e+01
8.607717773597650535e+01
8.607279029491363076e+01
8.608619481735460965e+01
8.611766104419154999e+01
8.616671511522281435e+01
8.623213448194637465e+01
8.631198676410204484e+01
8.640370931364762441e+01
8.650422739065898270e+01
8.661010248492851815e+01
8.671770429257024659e+01
8.682339631243378619e+01
8.692372406670087059e+01
8.701559648325572027e+01
8.709644847251202293e+01
8.716437671899912232e+01
8.721824012648737323e+01
8.725771926148009072e+01
8.728333011549433706e+01
8.729639131350153036e+01
8.729894610121012022e+01
8.729364290879658483e+01
8.728357972326395497e+01
8.727212099575170612e+01
8.726269717145015647e+01
8.725859684507479130e+01
8.726276450107580729e+01
8.727761375396508470e+01
8.730486796789377024e+01
8.734543649839577029e+01
8.739933592754329084e+01
8.746566059316701569e+01
8.754260519071857516e+01
8.762753971030011257e+01
8.771713288089695482e+01
8.780751915978466116e+01
8.789450074813463232e+01
8.797377355668146492e+01
8.804116521431926401e+01
8.809287140796162419e+01
8.812567834601307482e+01
8.813715740848719804e+01
8.812582049743539869e+01
8.809122625207351120e+01
8.803402971381076725e+01
8.795597154599140310e+01
8.785980602164914899e+01
8.774916985596702546e+01
8.762839785410488957e+01
8.750229484208698238e+01
8.737587531428792431e+01
8.725408582195012741e+01
8.714152400829256351e+01
8.704217085289120348e+01
8.695915160108411612e+01
8.689453898103940332e+01
8.684921251687596566e+01
8.682278063296917026e+01
8.681357298325173133e+01
8.681870446914147976e+01
8.683420915794454231e+01
8.685523817910760158e+01
8.687631082453209785e+01
8.689160710885572314e+01
8.689528523619341627e+01
8.688180749652414647e+01
8.684625748951683022e+01
8.678462928329022930e+01
8.669407411071905756e+01
8.657308921774998112e+01
8.642163943444590757e+01
8.624120344316321507e+01
8.603474178973206676e+01
8.580658863982759499e+01
8.556227194483011544e+01
8.530827219072176604e+01
8.505173334025563747e+01
8.480014077599783207e+01
8.456098398009525852e+01
8.434142153201098324e+01
8.414796766732709443e+01
8.398621508160231031e+01
8.386060985211024388e+01
8.377428807066306149e+01
8.372898170453539990e+01
8.372499772568295384e+01
8.376126815625259781e+01
8.383546683886180517e+01
8.394418267865410144e+01
8.408313840772342473e+01
8.424743975452398104e+01
8.443184039454983747e+01
8.463100405230785839e+01
8.483975071594487360e+01
8.505327192500909916e+01
8.526730359365959089e+01
8.547824911028176587e+01
8.568324713286226313e+01
8.588018372054541771e+01
8.606765163174937072e+01
8.624486319355767705e+01
8.641152841718533750e+01
8.656770652561094437e+01
8.671364747961462172e+01
8.684963475440733305e+01
8.697584415407773406e+01
8.709223063983735358e+01
8.719845067665322347e+01
8.729382836541959989e+01
8.737736686187231783e+01
8.744780586556912283e+01
8.750372049969426769e+01
8.754365333003096339e+01
8.756627011122446902e+01
8.757052614551419367e+01
8.755583057217410214e+01
8.752219482100504422e+01
8.747035137051422282e+01
8.740183284989281276e+01
8.731900223762798419e+01
8.722502854037642805e+01
8.712380754480282974e+01
8.701982846903493396e+01
8.691799222021003857e+01
8.682339176010111714e+01
8.674106593648596686e+01
8.667574217975882789e+01
8.663158255720634315e+01
8.661194974834855032e+01
8.661920703466202553e+01
8.665456525273479826e+01
8.671798869809691723e+01
8.680816481725105405e+01
8.692254244571965671e+01
8.705743588323966264e+01
8.720819067824895399e+01
8.736940211339407369e+01
8.753517380610068699e+01
8.769940290351709677e+01
8.785607419232186999e+01
8.799954834066882370e+01
8.812482674986347320e+01
8.822777962803614571e+01
8.830532434253730401e+01
8.835554579031915523e+01
8.837775255465837176e+01
8.837246959782692102e+01
8.834136698363481344e+01
8.828713386292814391e+01
8.821330539342284283e+01
8.812405499843239909e+01
8.802396637697427195e+01
8.791779799045153254e+01
8.781025591132031138e+01
8.770578678984722387e+01
8.760840254341638911e+01
8.752154509921940928e+01
8.744799591124170490e+01
8.738983289431465096e+01
8.734843240158645017e+01
8.732451190253858897e+01
8.731820662031371683e+01
8.732916957122766632e+01
8.735668472854233357e+01
8.739978295962870902e+01
8.745734817558638952e+01
8.752820640848415223e+01
8.761118807647888218e+01
8.770516110506058283e+01
8.780903008232156992e+01
8.792170436977812642e+01
8.804203920210660783e+01
8.816875610055420509e+01
8.830035171741938882e+01
8.843500584158135780e+01
8.857049994725602460e+01
8.870415792353777817e+01
8.883281725977698784e+01
8.895284123068211102e+01
8.906017544002629904e+01
8.915045286775620070e+01
8.921914493827523529e+01
8.926175385159312725e+01
8.927403794234841428e+01
8.925225808221757973e+01
8.919343154395701845e+01
8.909557745646225158e+01
8.895793561607680999e+01
8.878114488861402265e+01
8.856736391423923749e+01
8.832032350503764917e+01
8.804530067591250031e+01
8.774900946192624929e+01
8.743940889908928682e+01
8.712543185504523535e+01
8.681664563032562398e+01
8.652285810584494641e+01
8.625368686815423303e+01
8.601811343082542294e+01
8.582404555688461301e+01
8.567791028615879156e+01
8.558430303728781041e+01
8.554571095549603399e+01
8.556233047646014711e+01
8.563199050208929464e+01
8.575019005286610252e+01
8.591025234666361143e+01
8.610358831684943937e+01
8.632006183370540953e+01
8.654843755368970903e+01
8.677689161917056992e+01
8.699355864549573880e+01
8.718708749397295321e+01
8.734717625766701588e+01
8.746505961471338253e+01
8.753392123721936002e+01
8.754920987853714109e+01
8.750884127326790463e+01
8.741327514637808349e+01
8.726546309479935815e+01
8.707067095759805397e+01
8.683618488078886344e+01
8.657091727110771728e+01
8.628493519800022682e+01
8.598893746853002540e+01
8.569370967939906336e+01
8.540958736830076248e+01
8.514595590325934893e+01
8.491081553473594568e+01
8.471043431244645205e+01
8.454910720740249985e+01
8.442903272750736221e+01
8.435031094477389502e+01
8.431106149582825537e+01
8.430765062126971543e+01
8.433501186516670600e+01
8.438703962562119898e+01
8.445702820833811586e+01
8.453813066764429607e+01
8.462380762904825815e+01
8.470823978534515675e+01
8.478667864931584575e+01
8.485571565862893806e+01
8.491345522983078808e+01
8.495958226204913899e+01
8.499532334789330434e+01
8.502330578498812486e+01
8.504732610783652547e+01
8.507204496448578368e+01
8.510262862229646430e+01
8.514436141216134502e+01
8.520225533968061882e+01
8.528067959089128180e+01
8.538303553547656577e+01
8.551149536502315129e+01
8.566682076987402183e+01
8.584827115558893240e+01
8.605360492251966775e+01
8.627917304791043307e+01
8.652009696626019775e+01
8.677051791947926063e+01
8.702390149761393445e+01
8.727337765403358105e+01
8.751209505839928227e+01
8.773356737754069457e+01
8.793199323634819109e+01
8.810253013402963518e+01
8.824150872618267272e+01
8.834657683030727071e+01
8.841676805325953126e+01
8.845249418842061573e+01
8.845546541022642373e+01
8.842854690291119368e+01
8.837556275035841225e+01
8.830106177755233432e+01
8.821006042636767575e+01
8.810777969927008257e+01
8.799939039866153223e+01
8.788978064135073964e+01
8.778335687835910051e+01
8.768388734087713487e+01
8.759439139694207199e+01
8.751707758115190927e+01
8.745332863888407360e+01
8.740372808141668770e+01
8.736812328526262661e+01
8.734571607946065797e+01
8.733517156166999484e+01
8.733473737729602249e+01
8.734236348033739716e+01
8.735581743021973011e+01
8.737278910253949959e+01
8.739098004546802656e+01
8.740817824594982710e+01
8.742231710300544023e+01
8.743152101852892599e+01
8.743414077344797875e+01
8.742878153093609228e+01
8.741432731242136356e+01
8.738996531139214596e+01
8.735521233324431023e+01
8.730994262759145386e+01
8.725441827954547591e+01
8.718931807840975523e+01
8.711576205520046301e+01
8.703532698672213996e+01
8.695004716857363292e+01
8.686239481339647739e+01
8.677523539073358450e+01
8.669175369550781340e+01
8.661534915796863743e+01
8.654950042945064581e+01
8.649760168998933807e+01
8.646277658244092379e+01
8.644767730816482754e+01
8.645427985861951470e+01
8.648368761040396180e+01
8.653595616973420590e+01
8.660995302796952444e+01
8.670326534335980284e+01
8.681216742898220673e+01
8.693165603482012216e+01
8.705555956620834479e+01
8.717672202204316534e+01
8.728725948586185268e+01
8.737888003604527398e+01
8.744325722861552208e+01
8.747243868215974771e+01
8.745927176312592621e+01
8.739782348800234502e+01
8.728377294203855286e+01
8.711475193213395585e+01
8.689061307542183954e+01
8.661360659899231962e+01
8.628845126528287324e+01
8.592229072492123976e+01
8.552453086191107445e+01
8.510656161809157538e+01
8.468137226634176784e+01
8.426307599354827005e+01
8.386636523265524090e+01
8.350592176513357856e+01
8.319581204097478633e+01
8.294889667674199529e+01
8.277628459395731397e+01
8.268686058989989363e+01
8.268691099113542009e+01
8.277986788602126467e+01
8.296618491305899568e+01
8.324335234495546842e+01
8.360605048439327902e+01
8.404643296502671035e+01
8.455452422416183822e+01
8.511870993084382064e+01
8.572629304856228316e+01
8.636408445517571408e+01
8.701899672376666217e+01
8.767860684754207057e+01
8.833165937647255817e+01
8.896848172151349843e+01
8.958129169925645385e+01
9.016438113430758960e+01
9.071416889747180790e+01
9.122912369461923277e+01
9.170956543556448537e+01
9.215736078846836676e+01
9.257553478902150346e+01
9.296782531491248847e+01
9.333821045658871185e+01
9.369044040785240668e+01
9.402760465494957032e+01
9.435176227163698570e+01
9.466365971142550961e+01
9.496255316146709902e+01
9.524614722035968839e+01
9.551065361643503593e+01
9.575096518815101376e+01
9.596093353379360735e+01
9.613373210360693122e+01
9.626228172375010672e+01
9.633971043130236467e+01
9.635981765667887089e+01
9.631751495336168034e+01
9.620921276091802099e+01
9.603313063356445412e+01
9.578951191718617508e+01
9.548072796351461022e+01
9.511126777320973247e+01
9.468761224553318812e+01
9.421800285760778593e+01
9.371211808500871143e+01
9.318067870439570299e+01
9.263500365220545518e+01
9.208654501257998959e+01
9.154642648547871886e+01
9.102501216979462129e+01
9.053152796668933888e+01
9.007375369669114207e+01
8.965779976620748926e+01
8.928797515452515654e+01
8.896674929255217990e+01
8.869480237714047632e+01
8.847115407855314118e+01
8.829335817544563270e+01
8.815774466125948550e+01
8.805969183559057001e+01
8.799390908605322181e+01
8.795471245400777605e+01
8.793627825689884503e+01
8.793286270262328230e+01
8.793898063559082345e+01
8.794953853505964503e+01
8.795992380914465514e+01
8.796605358898715110e+01
8.796439131281206869e+01
8.795194027656469871e+01
8.792622307711404517e+01
8.788525831282936451e+01
8.782754025808232257e+01
8.775202861487788653e+01
8.765815006627749995e+01
8.754581158343437153e+01
8.741541972982086861e+01
8.726789984409793988e+01
8.710470630615586174e+01
8.692781249869726423e+01
8.673967213023843215e+01
8.654314182242576692e+01
8.634136123110138783e+01
8.613758715032794555e+01
8.593498703529824922e+01
8.573639845827734973e+01
8.554406808822631092e+01
8.535938726785977337e+01
8.518264508727158102e+01
8.501282159095302404e+01
8.484744345914873520e+01
8.468252213834244913e+01
8.451259116759889878e+01
8.433085221167176826e+01
8.412943476483386007e+01
8.389976164896565081e+01
8.363300739881893264e+01
8.332062571928848627e+01
8.295491484086571177e+01
8.252958451613601198e+01
8.204028404511679184e+01
8.148504866692481130e+01
8.086462708160776458e+01
8.018265420899689389e+01
7.944564593388724916e+01
7.866280074515574938e+01
7.784560768031543887e+01
7.700727384597303171e+01
7.616199841300503692e+01
7.532413523637960395e+01
7.450729330583467913e+01
7.372343795446349191e+01
7.298205438843061188e+01
7.228943763473886008e+01
7.164816819622659239e+01
7.105682127128500269e+01
7.050994373828613959e+01
6.999831622521622876e+01
6.950949672081712549e+01
6.902862231979587193e+01
6.853942516358115711e+01
6.802539820030230544e+01
6.747103456505124086e+01
6.686305141564919552e+01
6.619150879016872580e+01
6.545073197370322760e+01
6.463995929942961993e+01
6.376364915676654022e+01
6.283140470754216267e+01
6.185749743703104997e+01
6.086000087603632380e+01
5.985957382553244344e+01
5.887796072370740319e+01
5.793629978582566054e+01
5.705335057664175480e+01
5.624376048734347222e+01
5.551649727056349093e+01
5.487356591380538617e+01
5.430911518128984028e+01
5.380901632079098817e+01
5.335096607948742786e+01
5.290513303579791682e+01
5.243532776349192659e+01
5.190063990745183986e+01
5.125745376371549611e+01
5.046172122812053829e+01
4.947135374405947772e+01
4.824858224595500644e+01
4.676213437020555119e+01
4.498909140811218066e+01
4.291630784828436873e+01
4.054131106337204926e+01
3.787263744847662394e+01
3.492960604299650385e+01
3.174157681816933874e+01
2.834678487587163076e+01
2.479087688782717436e+01
2.112530678573709508e+01
1.740576140114113812e+01
1.369078912027809380e+01
1.004078898242659790e+01
6.517488950130827519e+00
3.183999039519324281e+00
1.054693209085806466e-01
-2.649678910722885306e+00
-5.008047310700264099e+00
-6.889241588543702832e+00
-8.203758673503786625e+00
-8.851042779713258923e+00
-8.718002616349579625e+00
-7.678286146389265987e+00
-5.592595838793427809e+00
-2.310285542589829433e+00
2.327582913318098967e+00
8.483631275601432264e+00
1.631801037393542941e+01
2.598082150894713394e+01
3.760334905881708778e+01
5.128845449860325090e+01
6.710058223854412063e+01
8.505591029767627731e+01
1.051132346379766034e+02
1.271661982180553991e+02
1.510374656440330341e+02
1.764753911714164474e+02
2.031536405892886989e+02
2.306741042735411611e+02
2.585732862075798266e+02
2.863321781995728657e+02
3.133894425500669172e+02
3.391575338039895655e+02
3.630412110833673864e+02
3.844577311225568224e+02
4.028578793983786568e+02
4.177469072581747582e+02
4.287043986949578311e+02
4.354020953514496455e+02
4.376187693108518602e+02
4.352513430278865485e+02
4.283216153791183274e+02
4.169781485059975807e+02
4.014930985116690749e+02
3.822540168421273279e+02
3.597508981585663150e+02
3.345589908006460291e+02
3.073181022243442158e+02
2.787093111704821240e+02
2.494301356490363730e+02
2.201692852416427968e+02
1.915821491594487043e+02
1.642681327756024530e+02
1.387508581703892219e+02
1.154620940127058191e+02
9.473008437338121723e+01
7.677271690948420257e+01
6.169572053649487486e+01
4.949582526892713474e+01
4.006856634146261342e+01
3.322018729787131974e+01
2.868290404177917097e+01
2.613263845213160508e+01
2.520823541754265307e+01
2.553113409494143937e+01
2.672448122401134540e+01
2.843074495125716084e+01
3.032701043731852764e+01
3.213729924533900828e+01
3.364145003025824820e+01
3.468030823892919301e+01
3.515719152774036615e+01
3.503580718907799962e+01
3.433498812335281514e+01
3.312077440833476771e+01
3.149649081379703830e+01
2.959154599405509956e+01
2.754971114382106379e+01
2.551761840205083942e+01
2.363415912815754893e+01
2.202136317903724105e+01
2.077721178995755125e+01
1.997068651588326915e+01
1.963919522972938481e+01
1.978835800819829416e+01
2.039398440760082565e+01
2.140594443305573691e+01
2.275353094581654290e+01
2.435184078265628926e+01
2.610866666155795812e+01
2.793138962214686316e+01
2.973339740535860187e+01
3.143961601261457872e+01
3.299083080909155541e+01
3.434657578445141723e+01
3.548648507834356991e+01
3.641011325943367183e+01
3.713533782177765374e+01
3.769555111986735341e+01
3.813592046246947831e+01
3.850904569510097986e+01
3.887036560159237553e+01
3.927366243668391377e+01
3.976698522398265112e+01
4.038926388415006841e+01
4.116782079701300745e+01
4.211690779246211491e+01
4.323731668630096436e+01
4.451702791659236880e+01
4.593278809774081850e+01
4.745244527616044650e+01
4.903782497144762687e+01
5.064789922266078293e+01
5.224199411866482734e+01
5.378279239959366009e+01
5.523891416503547447e+01
5.658690389273320420e+01
5.781250319328368192e+01
5.891115040928193025e+01
5.988770838505654837e+01
6.075548150887032506e+01
6.153463252076875989e+01
6.225015191443287677e+01
6.292955694615693574e+01
6.360051105278770933e+01
6.428855186523304610e+01
6.501509890925275670e+01
6.579588129606808877e+01
6.663988916352069225e+01
6.754890652446539434e+01
6.851763647724231987e+01
6.953438310805155709e+01
7.058221290310220297e+01
7.164048530139864113e+01
7.268661769333273526e+01
7.369793688969382117e+01
7.465347016824095761e+01
7.553553715639128541e+01
7.633102691737043699e+01
7.703227168588340135e+01
7.763746389473830334e+01
7.815060305108229954e+01
7.858099153745739329e+01
7.894233614281158395e+01
7.925153848768323428e+01
7.952728106233439576e+01
7.978852539379774100e+01
8.005304203754266723e+01
8.033608694013020113e+01
8.064932112967272815e+01
8.100004998823303026e+01
8.139083007321463015e+01
8.181946265762368853e+01
8.227936028575719263e+01
8.276024664130754616e+01
8.324912305324967576e+01
8.373141862557727677e+01
8.419222698959416107e+01
8.461753116603914293e+01
8.499532097146169463e+01
8.531651804883473744e+01
8.557564250014040397e+01
8.577117630247892066e+01
8.590560328271843105e+01
8.598513119182864273e+01
8.601912649874036276e+01
8.601931359884004280e+01
8.599880672828433603e+01
8.597105400420376498e+01
8.594877857820436873e+01
8.594299905645480919e+01
8.596220428528738466e+01
8.601174255663427459e+01
8.609346883108867132e+01
8.620567211692321052e+01
8.634328350666980612e+01
8.649834410720436040e+01
8.666069226376562540e+01
8.681881488140057002e+01
8.696079389805223059e+01
8.707527657930388898e+01
8.715239512446245840e+01
8.718456668094323447e+01
8.716711700887316283e+01
8.709868174934082674e+01
8.698135908283914830e+01
8.682060555433932336e+01
8.662488515520178112e+01
8.640509959180330668e+01
8.617384428847483946e+01
8.594454318415732530e+01
8.573052825253276410e+01
8.554412628767410354e+01
8.539581858890161925e+01
8.529353024246545090e+01
8.524209660831411384e+01
8.524294177039794818e+01
8.529398590455804197e+01
8.538978658194710647e+01
8.552189860853837899e+01
8.567942570456077078e+01
8.584972408178624903e+01
8.601920876965024831e+01
8.617420744449675851e+01
8.630180596941539761e+01
8.639063178563026213e+01
8.643152710704271158e+01
8.641807131534554287e+01
8.634692614606670702e+01
8.621798542102824570e+01
8.603432923944345134e+01
8.580199101733863642e+01
8.552955938852812778e+01
8.522764748987266614e+01
8.490826607616649824e+01
8.458414569789681536e+01
8.426805105239441218e+01
8.397213081551080904e+01
8.370734033368104576e+01
8.348297029483178733e+01
8.330630350555867381e+01
8.318241488707076314e+01
8.311411879540429481e+01
8.310205672452973147e+01
8.314491256913964889e+01
8.323973251399304729e+01
8.338232338969297075e+01
8.356769717982980694e+01
8.379053048936869175e+01
8.404560639817539425e+01
8.432821117413759282e+01
8.463446082131711989e+01
8.496153934686617504e+01
8.530783723982017364e+01
8.567298503514318497e+01
8.605778567661990053e+01
8.646405450271350901e+01
8.689438059740083986e+01
8.735183044843510913e+01
8.783961501377821435e+01
8.836074378389555761e+01
8.891769153258280767e+01
8.951209794082734561e+01
9.014452070141834383e+01
9.081425706068365855e+01
9.151924455210529175e+01
9.225604798119935879e+01
9.301993124064344443e+01
9.380501038903580024e+01
9.460447729270677542e+01
9.541088220286428623e+01
9.621645787606040301e+01
9.701346558794072905e+01
9.779454664531920116e+01
9.855305646715579826e+01
9.928336623094172353e+01
9.998111556786840026e+01
1.006434028250983772e+02
1.012689042576377574e+02
1.018579167849992899e+02
1.024123233390836702e+02
1.029354842200543203e+02
1.034320597178440977e+02
1.039077750735701642e+02
1.043691396284697674e+02
1.048231348891797552e+02
1.052768875571199771e+02
1.057373416669357766e+02
1.062109468624232420e+02
1.067033744367138297e+02
1.072192746404559074e+02
1.077620837274327528e+02
1.083338874722178531e+02
1.089353439686103968e+02
1.095656657729496857e+02
1.102226593948981019e+02
1.109028160793674402e+02
1.116014459802613459e+02
1.123128482178575780e+02
1.130305035166103806e+02
1.137472811925237153e+02
1.144556490283013233e+02
1.151478767783635391e+02
1.158162251303184860e+02
1.164531121528738424e+02
1.170512543238196770e+02
1.176037791471720766e+02
1.181043080796576135e+02
1.185470126974074674e+02
1.189266460071453366e+02
1.192385540256608039e+02
1.194786730230993754e+02
1.196435172471778259e+02
1.197301636208545546e+02
1.197362368658007910e+02
1.196599002043931534e+02
1.194998536939480118e+02
1.192553410949357442e+02
1.189261647274343261e+02
1.185127067356353052e+02
1.180159534067394702e+02
1.174375184285741227e+02
1.167796602071791625e+02
1.160452886795800964e+02
1.152379561780603012e+02
1.143618297747633221e+02
1.134216413024201131e+02
1.124226140943300436e+02
1.113703668577304882e+02
1.102707965102241872e+02
1.091299444693802911e+02
1.079538509397597181e+02
1.067484050242618849e+02
1.055191969779826309e+02
1.042713812190060310e+02
1.030095579756256257e+02
1.017376815108758166e+02
1.004589989796204890e+02
9.917602704106802491e+01
9.789056685344827713e+01
9.660375891166823692e+01
9.531617573249017994e+01
9.402794791137874597e+01
9.273891771706496456e+01
9.144881032929397691e+01
9.015741631979598480e+01
8.886477201415630134e+01
8.757132909267906484e+01
8.627810224038249487e+01
8.498678558995338506e+01
8.369983012226680330e+01
8.242047630340682929e+01
8.115273786927433264e+01
7.990133659527955956e+01
7.867158979009165876e+01
7.746925416512823404e+01
7.630033422250154729e+01
7.517086460554222072e+01
7.408667603615708686e+01
7.305315799440232638e+01
7.207502993997844953e+01
7.115613540584517693e+01
7.029926848537915873e+01
6.950604497730785170e+01
6.877682413000560757e+01
6.811068849598416364e+01
6.750548411344624355e+01
6.695792088151574717e+01
6.646372896504435346e+01
6.601786529291015881e+01
6.561476115991234792e+01
6.524859903414758833e+01
6.491360524433831358e+01
6.460434412040729057e+01
6.431599806779398421e+01
6.404462023721760033e+01
6.378734501066113438e+01
6.354254513353190958e+01
6.330992632783102891e+01
6.309055247540406697e+01
6.288679909905093979e+01
6.270223699549691077e+01
6.254144814752343251e+01
6.240978387308636854e+01
6.231307481629981737e+01
6.225730743351797258e+01
6.224828262363130449e+01
6.229127394428022058e+01
6.239070281315596844e+01
6.254984743512296319e+01
6.277060126503446469e+01
6.305329530697116525e+01
6.339659347407123846e+01
6.379746885925112565e+01
6.425126269650054667e+01
6.475182558420807766e+01
6.529173407002582508e+01
6.586257338632590574e+01
6.645527158550505931e+01
6.706046993635598596e+01
6.766890963257924341e+01
6.827181560534816640e+01
6.886125767892212934e+01
6.943046893022444976e+01
6.997410601005840647e+01
7.048843626772445248e+01
7.097144247459993949e+01
7.142283975182714073e+01
7.184400397386809800e+01
7.223781551591785899e+01
7.260842753751572332e+01
7.296097269052079071e+01
7.330122367932135319e+01
7.363522861401706621e+01
7.396894011329625584e+01
7.430786100840396102e+01
7.465672498300310167e+01
7.501923063677840275e+01
7.539784338355310922e+01
7.579367586552308467e+01
7.620645124976940110e+01
7.663455170280386142e+01
7.707514636036562194e+01
7.752438911193279125e+01
7.797767317055041758e+01
7.842992539028969645e+01
7.887592048225899077e+01
7.931059676515950230e+01
7.972935132834221861e+01
8.012829757098549521e+01
8.050446972332620987e+01
8.085596277173668511e+01
8.118199908986238711e+01
8.148292134483516236e+01
8.176011299194311732e+01
8.201585427963017594e+01
8.225312609661713736e+01
8.247537551764052921e+01
8.268626148884656857e+01
8.288939817408518707e+01
8.308811463435957023e+01
8.328524780842863606e+01
8.348298212187505385e+01
8.368274586270170801e+01
8.388517023402037864e+01
8.409011313817453015e+01
8.429674310747101629e+01
8.450367495082463165e+01
8.470914676357773487e+01
8.491122147616852089e+01
8.510799859366105125e+01
8.529781668172931575e+01
8.547943220501389305e+01
8.565215948371557886e+01
8.581596099080060469e+01
8.597148029937932279e+01
8.612001695903816767e+01
8.626344282891322734e+01
8.640406815631452275e+01
8.654446768375919419e+01
8.668728002004839084e+01
8.683499825838380559e+01
8.698976549102718536e+01
8.715319442543811590e+01
8.732622410614455077e+01
8.750902635544102282e+01
8.770096898612628422e+01
8.790063922323628276e+01
8.810592655518610172e+01
8.831415707669627579e+01
8.852226991409486345e+01
8.872702137302161418e+01
8.892520039743736504e+01
8.911383724272772611e+01
8.929038946909687979e+01
8.945288808508253453e+01
8.960003331363974155e+01
8.973123051777994874e+01
8.984656319889974441e+01
8.994670502563020875e+01
9.003277686039680816e+01
9.010616313585597936e+01
9.016830067911715219e+01
9.022045907934818842e+01
9.026353267540780223e+01
9.029786321713422126e+01
9.032311152011490663e+01
9.033819073824554380e+01
9.034127196676230653e+01
9.032986585708981409e+01
9.030097735005949744e+01
9.025132668856058160e+01
9.017762108615920624e+01
9.007685901590046740e+01
8.994664495775367641e+01
8.978548937704736943e+01
8.959307101737137202e+01
8.937043655771859108e+01
8.912012043350392787e+01
8.884616980208413395e+01
8.855406690434095651e+01
8.825054946560705105e+01
8.794333491605161157e+01
8.764076382961017941e+01
8.735138197537754934e+01
8.708348812189576904e+01
8.684467684879919602e+01
8.664140613051191053e+01
8.647861983229455518e+01
8.635945250290636466e+01
8.628503755954872645e+01
8.625443606238212624e+01
8.626468996425784042e+01
8.631100231505696740e+01
8.638703203437152922e+01
8.648528657045484636e+01
8.659758664431302577e+01
8.671557250947432749e+01
8.683121878821209805e+01
8.693732150717941920e+01
8.702792565610734243e+01
8.709866354467096983e+01
8.714697958802362621e+01
8.717222631287442880e+01
8.717562516503791414e+01
8.716009460005525966e+01
8.712995789399747082e+01
8.709055059298650292e+01
8.704775673353999821e+01
8.700750604151163259e+01
8.697526980918502204e+01
8.695559104871654199e+01
8.695168390284477766e+01
8.696513297960680688e+01
8.699571353169052657e+01
8.704134940732122061e+01
8.709821296569516846e+01
8.716096048487604264e+01
8.722308919114246351e+01
8.727739206941743078e+01
8.731647826342729957e+01
8.733332492068194597e+01
8.732181999177350917e+01
8.727725782193986959e+01
8.719675253485512201e+01
8.707953810076536172e+01
8.692713240929215601e+01
8.674335196416701876e+01
8.653417312444028653e+01
8.630744666844762492e+01
8.607248330425319693e+01
8.583953474256523464e+01
8.561920436488631481e+01
8.542182427649237297e+01
8.525683894931952977e+01
8.513223634424318220e+01
8.505406187484844338e+01
8.502604651959005366e+01
8.504937335627268169e+01
8.512259585812591922e+01
8.524171376866036098e+01
8.540040030614935063e+01
8.559036405968996064e+01
8.580182318535173636e+01
8.602405954992048009e+01
8.624601831339043656e+01
8.645691515629631851e+01
8.664681240682440944e+01
8.680713097972709136e+01
8.693106783978775809e+01
8.701389709032923747e+01
8.705313903373598805e+01
8.704859279716986009e+01
8.700223676040384646e+01
8.691800733291240988e+01
8.680147765423153317e+01
8.665946038261589024e+01
8.649956399395708218e+01
8.632973390681232218e+01
8.615780838708177214e+01
8.599111724198611739e+01
8.583614647127659225e+01
8.569828565395444286e+01
8.558166911555420597e+01
8.548911249057395878e+01
8.542214207205448417e+01
8.538110502465221430e+01
8.536534422288482915e+01
8.537341862241551382e+01
8.540334543913422749e+01
8.545284347650407142e+01
8.551955513583877178e+01
8.560122982071315789e+01
8.569585510646609805e+01
8.580172765559878201e+01
8.591746240265483436e+01
8.604194283843440871e+01
8.617422186705006482e+01
8.631338699371234213e+01
8.645840448942479384e+01
8.660796467588428982e+01
8.676034340835877856e+01
8.691329844332841503e+01
8.706401382054923488e+01
8.720910170801444394e+01
8.734466787397776955e+01
8.746643903934548803e+01
8.756994613276802397e+01
8.765075244533761634e+01
8.770471135381566796e+01
8.772823534065381068e+01
8.771855649403850919e+01
8.767395846245743485e+01
8.759396166661989014e+01
8.747944586778901055e+01
8.733269966818266994e+01
8.715738965016946338e+01
8.695844909144193480e+01
8.674189026932010904e+01
8.651455101344097898e+01
8.628378991827901245e+01
8.605714885198676711e+01
8.584200253459096075e+01
8.564521648617555627e+01
8.547283324674290839e+01
8.532980652334752847e+01
8.521979659754980219e+01
8.514503832186113641e+01
8.510628696651481562e+01
8.510284271453259919e+01
8.513264923625609981e+01
8.519245623163678260e+01
8.527803412744758305e+01
8.538442436405419755e+01
8.550620822802135024e+01
8.563777780960089103e+01
8.577359240577699495e+01
8.590840596049976341e+01
8.603745585776640326e+01
8.615660441935186498e+01
8.626243135570184961e+01
8.635227770340553377e+01
8.642424474538734103e+01
8.647715667685884000e+01
8.651049493724364936e+01
